{
  "AcquisitionMatrixPE": 70,
  "AcquisitionNumber": 1,
  "AcquisitionTime": "15:50:44.900000",
  "BandwidthPerPixelPhaseEncode": 38.873,
  "BaseResolution": 70,
  "BodyPartExamined": "HEAD",
  "ConsistencyInfo": "N4_VE11B_LATEST_20150530",
  "ConversionSoftware": "dcm2niix",
  "ConversionSoftwareVersion": "v1.0.20190410  GCC6.3.0",
  "DerivedVendorReportedEchoSpacing": 0.000489996,
  "DeviceSerialNumber": "66088",
  "DwellTime": 2.9e-06,
  "EchoTime": 0.03,
  "EchoTrainLength": 53,
  "EffectiveEchoSpacing": 0.000367497,
  "FlipAngle": 90,
  "ImageOrientationPatientDICOM": [0.999765, 0.000781231, 0.0216747, 0.00872484, 0.900438, -0.434896],
  "ImageType": [
    "ORIGINAL",
    "PRIMARY",
    "M",
    "ND",
    "NORM",
    "MOSAIC"
],
  "ImagingFrequency": 123.191,
  "InPlanePhaseEncodingDirectionDICOM": "COL",
  "InstitutionAddress": "Street_StreetNo_City_District_IR_ZIP",
  "InstitutionName": "NBML",
  "InstitutionalDepartmentName": "Department",
  "MRAcquisitionType": "2D",
  "MagneticFieldStrength": 3,
  "Manufacturer": "Siemens",
  "ManufacturersModelName": "Prisma",
  "Modality": "MR",
  "ParallelReductionFactorInPlane": 2,
  "PartialFourier": 1,
  "PatientPosition": "HFS",
  "PercentPhaseFOV": 100,
  "PhaseEncodingDirection": "j-",
  "PhaseEncodingSteps": 105,
  "PhaseOversampling": 0.5,
  "PhaseResolution": 1,
  "PixelBandwidth": 2465,
  "ProcedureStepDescription": "NBML_Project_P_96169_Ebrahiminiya-Khaliq",
  "ProtocolName": "ep2d_p2_Task_3.5_measurment:237",
  "PulseSequenceDetails": "%SiemensSeq%_ep2d_pace",
  "ReceiveCoilActiveElements": "HC1-7;NC1",
  "ReceiveCoilName": "HeadNeck_64",
  "ReconMatrixPE": 70,
  "RefLinesPE": 24,
  "RepetitionTime": 2,
  "SAR": 0.0939884,
  "ScanOptions": "FS",
  "ScanningSequence": "EP",
  "SequenceName": "_epfid2d1_70",
  "SequenceVariant": "SK_OSP",
  "SeriesDescription": "ep2d_p2_Task_3.5_measurment:237",
  "SeriesNumber": 8,
  "ShimSetting": [2612, -4506, -3221, 375, -19, -50, 53, 42],
  "SliceThickness": 3.5,
  "SliceTiming": [0.99, 0, 1.0475, 0.0575, 1.105, 0.115, 1.165, 0.175, 1.2225, 0.2325, 1.28, 0.29, 1.34, 0.35, 1.3975, 0.4075, 1.455, 0.465, 1.5125, 0.5225, 1.5725, 0.5825, 1.63, 0.64, 1.6875, 0.6975, 1.7475, 0.7575, 1.805, 0.815, 1.8625, 0.8725, 1.92, 0.93],
  "SoftwareVersions": "syngo_MR_E11",
  "SpacingBetweenSlices": 3.85,
  "StationName": "AWP66088",
  "TaskName": "categorySelectivity",
  "TotalReadoutTime": 0.0253573,
  "TxRefAmp": 240.964,
  "dcmmeta_affine": [
    [-3.5420238971710205, 0.030910853296518326, 0.07644747197628021, 121.86128234863281],
    [-0.0027677910402417183, 3.190124988555908, -1.6746832132339478, -85.47254943847656],
    [0.07679035514593124, 1.540773868560791, 3.465846538543701, -84.56521606445312],
    [0.0, 0.0, 0.0, 1.0]
],
  "dcmmeta_reorient_transform": [
    [0.0, -1.0, 0.0, 69.0],
    [1.0, 0.0, 0.0, 0.0],
    [0.0, 0.0, 1.0, 0.0],
    [0.0, 0.0, 0.0, 1.0]
],
  "dcmmeta_shape": [70, 70, 34, 237],
  "dcmmeta_slice_dim": 2,
  "dcmmeta_version": 0.6,
  "global": {
    "const": {
      "AccessionNumber": "M.BRZ",
      "AcquisitionMatrix": [70, 0, 0, 70],
      "AngioFlag": "N",
      "BitsAllocated": 16,
      "BitsStored": 12,
      "BodyPartExamined": "HEAD",
      "Columns": 420,
      "EchoNumbers": 1,
      "EchoTime": 30.0,
      "EchoTrainLength": 53,
      "FlipAngle": 90.0,
      "HighBit": 11,
      "ImageOrientationPatient": [0.99976477090926, 0.0007812313552, 0.02167469783682, 0.00872483781122, 0.90043848882316, -0.434895855408],
      "ImagePositionPatient": [-749.25769235275, -693.40230195121, 277.94530214234],
      "ImageType": [
        "ORIGINAL",
        "PRIMARY",
        "M",
        "ND",
        "NORM",
        "MOSAIC"
],
      "ImagedNucleus": "1H",
      "ImagingFrequency": 123.191125,
      "InPlanePhaseEncodingDirection": "COL",
      "MRAcquisitionType": "2D",
      "MagneticFieldStrength": 3.0,
      "Manufacturer": "SIEMENS",
      "ManufacturerModelName": "Prisma",
      "Modality": "MR",
      "NumberOfAverages": 1.0,
      "NumberOfPhaseEncodingSteps": 105,
      "PercentPhaseFieldOfView": 100.0,
      "PercentSampling": 100.0,
      "PerformedProcedureStepStartTime": "145614.269000",
      "PhotometricInterpretation": "MONOCHROME2",
      "PixelBandwidth": 2465.0,
      "PixelRepresentation": 0,
      "PixelSpacing": [3.542857170105, 3.542857170105],
      "ProtocolName": "ep2d_p2_Task_3.5_measurment:237",
      "RepetitionTime": 2000.0,
      "Rows": 420,
      "SAR": 0.09398838999322,
      "SamplesPerPixel": 1,
      "ScanOptions": "FS",
      "ScanningSequence": "EP",
      "SequenceName": "*epfid2d1_70",
      "SequenceVariant": [
        "SK",
        "OSP"
],
      "SeriesDescription": "ep2d_p2_Task_3.5_measurment:237",
      "SeriesNumber": 8,
      "SeriesTime": "155125.845000",
      "SliceLocation": -36.528473029104,
      "SliceThickness": 3.5,
      "SmallestImagePixelValue": 0,
      "SoftwareVersions": "syngo MR E11",
      "SpacingBetweenSlices": 3.8499999419959,
      "SpecificCharacterSet": "ISO_IR 100",
      "StudyID": "1",
      "StudyTime": "145614.102000",
      "TransmitCoilName": "Body",
      "VariableFlipAngleFlag": "N",
      "WindowCenterWidthExplanation": "Algo1",
      "dBdt": 0.0},
    "slices": {}
  },
  "time": {
    "samples": {
      "AcquisitionNumber": [1, 2, 3, 4, 5, 6, 7, 8, 9, 10, 11, 12, 13, 14, 15, 16, 17, 18, 19, 20, 21, 22, 23, 24, 25, 26, 27, 28, 29, 30, 31, 32, 33, 34, 35, 36, 37, 38, 39, 40, 41, 42, 43, 44, 45, 46, 47, 48, 49, 50, 51, 52, 53, 54, 55, 56, 57, 58, 59, 60, 61, 62, 63, 64, 65, 66, 67, 68, 69, 70, 71, 72, 73, 74, 75, 76, 77, 78, 79, 80, 81, 82, 83, 84, 85, 86, 87, 88, 89, 90, 91, 92, 93, 94, 95, 96, 97, 98, 99, 100, 101, 102, 103, 104, 105, 106, 107, 108, 109, 110, 111, 112, 113, 114, 115, 116, 117, 118, 119, 120, 121, 122, 123, 124, 125, 126, 127, 128, 129, 130, 131, 132, 133, 134, 135, 136, 137, 138, 139, 140, 141, 142, 143, 144, 145, 146, 147, 148, 149, 150, 151, 152, 153, 154, 155, 156, 157, 158, 159, 160, 161, 162, 163, 164, 165, 166, 167, 168, 169, 170, 171, 172, 173, 174, 175, 176, 177, 178, 179, 180, 181, 182, 183, 184, 185, 186, 187, 188, 189, 190, 191, 192, 193, 194, 195, 196, 197, 198, 199, 200, 201, 202, 203, 204, 205, 206, 207, 208, 209, 210, 211, 212, 213, 214, 215, 216, 217, 218, 219, 220, 221, 222, 223, 224, 225, 226, 227, 228, 229, 230, 231, 232, 233, 234, 235, 236, 237],
      "AcquisitionTime": ["155044.900000", "155046.900000", "155048.900000", "155050.900000", "155052.900000", "155054.900000", "155056.900000", "155058.900000", "155100.900000", "155102.900000", "155104.900000", "155106.900000", "155108.900000", "155110.900000", "155112.900000", "155114.900000", "155116.900000", "155118.900000", "155120.900000", "155122.900000", "155124.900000", "155126.900000", "155128.900000", "155130.900000", "155132.900000", "155134.900000", "155136.900000", "155138.900000", "155140.900000", "155142.900000", "155144.900000", "155146.900000", "155148.900000", "155150.900000", "155152.900000", "155154.900000", "155156.900000", "155158.900000", "155200.900000", "155202.900000", "155204.900000", "155206.900000", "155208.900000", "155210.900000", "155212.900000", "155214.900000", "155216.900000", "155218.900000", "155220.900000", "155222.900000", "155224.900000", "155226.900000", "155228.900000", "155230.900000", "155232.900000", "155234.900000", "155236.900000", "155238.900000", "155240.900000", "155242.900000", "155244.900000", "155246.900000", "155248.900000", "155250.900000", "155252.900000", "155254.900000", "155256.900000", "155258.900000", "155300.900000", "155302.900000", "155304.900000", "155306.900000", "155308.900000", "155310.900000", "155312.900000", "155314.900000", "155316.900000", "155318.900000", "155320.900000", "155322.900000", "155324.900000", "155326.900000", "155328.900000", "155330.900000", "155332.900000", "155334.900000", "155336.900000", "155338.900000", "155340.900000", "155342.900000", "155344.900000", "155346.900000", "155348.900000", "155350.900000", "155352.900000", "155354.900000", "155356.900000", "155358.900000", "155400.900000", "155402.900000", "155404.900000", "155406.900000", "155408.900000", "155410.900000", "155412.900000", "155414.900000", "155416.900000", "155418.900000", "155420.900000", "155422.900000", "155424.900000", "155426.900000", "155428.900000", "155430.900000", "155432.900000", "155434.900000", "155436.900000", "155438.900000", "155440.900000", "155442.900000", "155444.900000", "155446.900000", "155448.900000", "155450.900000", "155452.900000", "155454.900000", "155456.900000", "155458.900000", "155500.900000", "155502.900000", "155504.900000", "155506.900000", "155508.900000", "155510.900000", "155512.900000", "155514.900000", "155516.900000", "155518.900000", "155520.900000", "155522.900000", "155524.900000", "155526.900000", "155528.900000", "155530.900000", "155532.900000", "155534.900000", "155536.900000", "155538.900000", "155540.900000", "155542.900000", "155544.900000", "155546.900000", "155548.900000", "155550.900000", "155552.900000", "155554.900000", "155556.900000", "155558.900000", "155600.900000", "155602.900000", "155604.900000", "155606.900000", "155608.900000", "155610.900000", "155612.900000", "155614.900000", "155616.900000", "155618.900000", "155620.900000", "155622.900000", "155624.900000", "155626.900000", "155628.900000", "155630.900000", "155632.900000", "155634.900000", "155636.900000", "155638.900000", "155640.900000", "155642.900000", "155644.900000", "155646.900000", "155648.900000", "155650.900000", "155652.900000", "155654.900000", "155656.900000", "155658.900000", "155700.900000", "155702.900000", "155704.900000", "155706.900000", "155708.900000", "155710.900000", "155712.900000", "155714.900000", "155716.900000", "155718.900000", "155720.900000", "155722.900000", "155724.900000", "155726.900000", "155728.900000", "155730.900000", "155732.900000", "155734.900000", "155736.900000", "155738.900000", "155740.900000", "155742.900000", "155744.900000", "155746.900000", "155748.900000", "155750.900000", "155752.900000", "155754.900000", "155756.900000", "155758.900000", "155800.900000", "155802.900000", "155804.900000", "155806.900000", "155808.900000", "155810.900000", "155812.900000", "155814.900000", "155816.900000", "155818.900000", "155820.900000", "155822.900000", "155824.900000", "155826.900000", "155828.900000", "155830.900000", "155832.900000", "155834.900000", "155836.900000"],
      "ContentTime": ["155125.848000", "155125.852000", "155125.854000", "155125.856000", "155125.859000", "155125.861000", "155125.875000", "155125.877000", "155125.879000", "155125.882000", "155125.884000", "155125.886000", "155125.889000", "155125.891000", "155125.894000", "155125.896000", "155125.898000", "155125.901000", "155125.903000", "155125.906000", "155205.843000", "155205.846000", "155205.849000", "155205.851000", "155205.853000", "155205.856000", "155205.858000", "155205.861000", "155205.863000", "155205.865000", "155205.868000", "155205.870000", "155205.872000", "155205.875000", "155205.877000", "155205.880000", "155205.882000", "155205.884000", "155205.887000", "155205.889000", "155245.844000", "155245.847000", "155245.849000", "155245.852000", "155245.854000", "155245.857000", "155245.859000", "155245.862000", "155245.877000", "155245.880000", "155245.882000", "155245.885000", "155245.887000", "155245.890000", "155245.892000", "155245.895000", "155245.897000", "155245.900000", "155245.902000", "155245.905000", "155325.844000", "155325.846000", "155325.849000", "155325.851000", "155325.853000", "155325.856000", "155325.858000", "155325.861000", "155325.863000", "155325.865000", "155325.868000", "155325.870000", "155325.873000", "155325.875000", "155325.877000", "155325.880000", "155325.882000", "155325.884000", "155325.887000", "155325.889000", "155405.844000", "155405.847000", "155405.849000", "155405.851000", "155405.854000", "155405.856000", "155405.859000", "155405.861000", "155405.863000", "155405.866000", "155405.868000", "155405.870000", "155405.873000", "155405.875000", "155405.878000", "155405.880000", "155405.882000", "155405.885000", "155405.888000", "155405.890000", "155445.847000", "155445.850000", "155445.853000", "155445.855000", "155445.858000", "155445.861000", "155445.863000", "155445.866000", "155445.868000", "155445.871000", "155445.873000", "155445.876000", "155445.878000", "155445.881000", "155445.883000", "155445.886000", "155445.889000", "155445.891000", "155445.894000", "155445.896000", "155525.844000", "155525.847000", "155525.849000", "155525.852000", "155525.855000", "155525.857000", "155525.860000", "155525.862000", "155525.865000", "155525.867000", "155525.870000", "155525.872000", "155525.875000", "155525.877000", "155525.880000", "155525.883000", "155525.885000", "155525.888000", "155525.890000", "155525.893000", "155605.844000", "155605.847000", "155605.849000", "155605.852000", "155605.854000", "155605.857000", "155605.859000", "155605.862000", "155605.865000", "155605.867000", "155605.870000", "155605.872000", "155605.875000", "155605.877000", "155605.880000", "155605.882000", "155605.885000", "155605.887000", "155605.890000", "155605.893000", "155645.844000", "155645.855000", "155645.857000", "155645.860000", "155645.862000", "155645.865000", "155645.867000", "155645.870000", "155645.872000", "155645.875000", "155645.877000", "155645.880000", "155645.882000", "155645.885000", "155645.887000", "155645.890000", "155645.893000", "155645.895000", "155645.898000", "155645.900000", "155725.844000", "155725.848000", "155725.851000", "155725.854000", "155725.856000", "155725.859000", "155725.862000", "155725.864000", "155725.867000", "155725.869000", "155725.872000", "155725.875000", "155725.877000", "155725.880000", "155725.883000", "155725.885000", "155725.896000", "155725.906000", "155725.908000", "155725.911000", "155805.844000", "155805.846000", "155805.849000", "155805.851000", "155805.853000", "155805.856000", "155805.858000", "155805.861000", "155805.863000", "155805.866000", "155805.868000", "155805.871000", "155805.873000", "155805.875000", "155805.878000", "155805.880000", "155805.883000", "155805.885000", "155805.887000", "155805.890000", "155838.049000", "155838.052000", "155838.054000", "155838.057000", "155838.059000", "155838.062000", "155838.064000", "155838.067000", "155838.069000", "155838.072000", "155838.074000", "155838.077000", "155838.082000", "155838.086000", "155838.089000", "155838.092000", "155838.094000"],
      "InstanceCreationTime": ["155125.848000", "155125.852000", "155125.854000", "155125.856000", "155125.859000", "155125.861000", "155125.875000", "155125.877000", "155125.879000", "155125.882000", "155125.884000", "155125.886000", "155125.889000", "155125.891000", "155125.894000", "155125.896000", "155125.898000", "155125.901000", "155125.903000", "155125.906000", "155205.843000", "155205.846000", "155205.849000", "155205.851000", "155205.853000", "155205.856000", "155205.858000", "155205.861000", "155205.863000", "155205.865000", "155205.868000", "155205.870000", "155205.872000", "155205.875000", "155205.877000", "155205.880000", "155205.882000", "155205.884000", "155205.887000", "155205.889000", "155245.844000", "155245.847000", "155245.849000", "155245.852000", "155245.854000", "155245.857000", "155245.859000", "155245.862000", "155245.877000", "155245.880000", "155245.882000", "155245.885000", "155245.887000", "155245.890000", "155245.892000", "155245.895000", "155245.897000", "155245.900000", "155245.902000", "155245.905000", "155325.844000", "155325.846000", "155325.849000", "155325.851000", "155325.853000", "155325.856000", "155325.858000", "155325.861000", "155325.863000", "155325.865000", "155325.868000", "155325.870000", "155325.873000", "155325.875000", "155325.877000", "155325.880000", "155325.882000", "155325.884000", "155325.887000", "155325.889000", "155405.844000", "155405.847000", "155405.849000", "155405.851000", "155405.854000", "155405.856000", "155405.859000", "155405.861000", "155405.863000", "155405.866000", "155405.868000", "155405.870000", "155405.873000", "155405.875000", "155405.878000", "155405.880000", "155405.882000", "155405.885000", "155405.888000", "155405.890000", "155445.847000", "155445.850000", "155445.853000", "155445.855000", "155445.858000", "155445.861000", "155445.863000", "155445.866000", "155445.868000", "155445.871000", "155445.873000", "155445.876000", "155445.878000", "155445.881000", "155445.883000", "155445.886000", "155445.889000", "155445.891000", "155445.894000", "155445.896000", "155525.844000", "155525.847000", "155525.849000", "155525.852000", "155525.855000", "155525.857000", "155525.860000", "155525.862000", "155525.865000", "155525.867000", "155525.870000", "155525.872000", "155525.875000", "155525.877000", "155525.880000", "155525.883000", "155525.885000", "155525.888000", "155525.890000", "155525.893000", "155605.844000", "155605.847000", "155605.849000", "155605.852000", "155605.854000", "155605.857000", "155605.859000", "155605.862000", "155605.865000", "155605.867000", "155605.870000", "155605.872000", "155605.875000", "155605.877000", "155605.880000", "155605.882000", "155605.885000", "155605.887000", "155605.890000", "155605.893000", "155645.844000", "155645.855000", "155645.857000", "155645.860000", "155645.862000", "155645.865000", "155645.867000", "155645.870000", "155645.872000", "155645.875000", "155645.877000", "155645.880000", "155645.882000", "155645.885000", "155645.887000", "155645.890000", "155645.893000", "155645.895000", "155645.898000", "155645.900000", "155725.844000", "155725.848000", "155725.851000", "155725.854000", "155725.856000", "155725.859000", "155725.862000", "155725.864000", "155725.867000", "155725.869000", "155725.872000", "155725.875000", "155725.877000", "155725.880000", "155725.883000", "155725.885000", "155725.896000", "155725.906000", "155725.908000", "155725.911000", "155805.844000", "155805.846000", "155805.849000", "155805.851000", "155805.853000", "155805.856000", "155805.858000", "155805.861000", "155805.863000", "155805.866000", "155805.868000", "155805.871000", "155805.873000", "155805.875000", "155805.878000", "155805.880000", "155805.883000", "155805.885000", "155805.887000", "155805.890000", "155838.049000", "155838.052000", "155838.054000", "155838.057000", "155838.059000", "155838.062000", "155838.064000", "155838.067000", "155838.069000", "155838.072000", "155838.074000", "155838.077000", "155838.082000", "155838.086000", "155838.089000", "155838.092000", "155838.094000"],
      "InstanceNumber": [1, 2, 3, 4, 5, 6, 7, 8, 9, 10, 11, 12, 13, 14, 15, 16, 17, 18, 19, 20, 21, 22, 23, 24, 25, 26, 27, 28, 29, 30, 31, 32, 33, 34, 35, 36, 37, 38, 39, 40, 41, 42, 43, 44, 45, 46, 47, 48, 49, 50, 51, 52, 53, 54, 55, 56, 57, 58, 59, 60, 61, 62, 63, 64, 65, 66, 67, 68, 69, 70, 71, 72, 73, 74, 75, 76, 77, 78, 79, 80, 81, 82, 83, 84, 85, 86, 87, 88, 89, 90, 91, 92, 93, 94, 95, 96, 97, 98, 99, 100, 101, 102, 103, 104, 105, 106, 107, 108, 109, 110, 111, 112, 113, 114, 115, 116, 117, 118, 119, 120, 121, 122, 123, 124, 125, 126, 127, 128, 129, 130, 131, 132, 133, 134, 135, 136, 137, 138, 139, 140, 141, 142, 143, 144, 145, 146, 147, 148, 149, 150, 151, 152, 153, 154, 155, 156, 157, 158, 159, 160, 161, 162, 163, 164, 165, 166, 167, 168, 169, 170, 171, 172, 173, 174, 175, 176, 177, 178, 179, 180, 181, 182, 183, 184, 185, 186, 187, 188, 189, 190, 191, 192, 193, 194, 195, 196, 197, 198, 199, 200, 201, 202, 203, 204, 205, 206, 207, 208, 209, 210, 211, 212, 213, 214, 215, 216, 217, 218, 219, 220, 221, 222, 223, 224, 225, 226, 227, 228, 229, 230, 231, 232, 233, 234, 235, 236, 237],
      "LargestImagePixelValue": [2523, 1868, 2358, 2085, 2380, 2165, 2405, 2487, 2382, 2081, 2363, 2526, 2327, 2379, 1961, 2472, 2304, 2230, 2414, 2612, 2187, 2486, 2414, 2009, 2531, 2437, 2566, 2132, 2448, 2488, 1797, 2354, 2368, 1761, 2312, 2401, 2144, 2475, 2389, 2032, 2438, 2474, 2338, 2305, 2187, 2425, 2523, 2127, 2406, 2090, 2584, 2201, 2052, 2640, 2447, 2437, 2153, 2550, 2426, 2079, 2633, 2190, 2091, 2453, 2493, 2581, 2315, 2173, 2724, 2340, 2176, 2574, 2495, 2138, 2517, 2374, 2093, 2516, 2250, 2168, 2403, 2820, 2271, 2057, 2556, 2515, 2576, 2176, 2582, 2538, 2608, 2284, 2499, 2395, 2195, 2531, 2391, 2430, 2017, 2206, 2598, 2826, 2720, 1962, 2607, 2182, 2099, 2281, 2732, 1855, 2425, 2379, 2470, 2021, 2479, 2504, 2660, 2323, 2464, 2447, 2162, 2725, 2501, 2397, 2038, 2513, 2606, 2439, 2079, 2600, 2209, 2526, 2248, 2392, 2055, 2625, 2389, 2435, 2429, 2434, 2514, 2366, 2521, 2482, 2211, 2637, 2531, 1767, 2557, 2242, 2268, 2458, 2546, 2537, 2279, 2432, 2273, 2444, 2473, 2224, 2510, 2362, 2120, 2583, 2615, 2315, 2419, 2735, 2310, 2802, 2432, 2154, 2559, 2351, 2177, 2661, 2389, 2489, 2159, 2650, 2444, 2265, 2056, 2474, 2482, 2316, 2488, 2522, 2341, 2548, 2538, 2281, 2795, 2485, 1976, 2367, 2471, 2460, 2325, 2340, 2366, 2606, 2191, 2371, 2381, 2085, 2618, 2428, 2210, 2523, 2644, 2476, 2419, 2299, 2235, 2320, 2576, 2667, 2284, 2351, 2325, 2498, 2331, 2084, 2628, 2620, 2493, 2657, 2333, 2421, 1974, 2563, 2108, 2438, 2276, 2391, 2479],
      "WindowCenter": [716.0, 715.0, 717.0, 716.0, 716.0, 716.0, 717.0, 716.0, 716.0, 716.0, 717.0, 717.0, 716.0, 715.0, 714.0, 715.0, 716.0, 715.0, 715.0, 717.0, 716.0, 715.0, 716.0, 715.0, 717.0, 716.0, 717.0, 716.0, 716.0, 716.0, 714.0, 715.0, 716.0, 714.0, 716.0, 716.0, 715.0, 716.0, 715.0, 715.0, 716.0, 715.0, 716.0, 715.0, 715.0, 716.0, 717.0, 716.0, 716.0, 716.0, 716.0, 716.0, 715.0, 716.0, 716.0, 716.0, 715.0, 716.0, 715.0, 714.0, 716.0, 716.0, 717.0, 718.0, 717.0, 716.0, 716.0, 716.0, 716.0, 715.0, 714.0, 716.0, 715.0, 715.0, 715.0, 716.0, 715.0, 717.0, 716.0, 715.0, 715.0, 716.0, 716.0, 715.0, 716.0, 716.0, 716.0, 716.0, 717.0, 716.0, 715.0, 715.0, 715.0, 716.0, 715.0, 715.0, 715.0, 716.0, 717.0, 717.0, 716.0, 715.0, 714.0, 712.0, 714.0, 714.0, 714.0, 714.0, 715.0, 714.0, 717.0, 716.0, 716.0, 716.0, 717.0, 716.0, 716.0, 715.0, 715.0, 716.0, 715.0, 715.0, 715.0, 715.0, 715.0, 716.0, 716.0, 715.0, 714.0, 716.0, 716.0, 717.0, 716.0, 717.0, 715.0, 715.0, 716.0, 716.0, 717.0, 716.0, 715.0, 715.0, 715.0, 715.0, 714.0, 716.0, 715.0, 713.0, 716.0, 716.0, 715.0, 715.0, 715.0, 716.0, 716.0, 716.0, 716.0, 716.0, 716.0, 716.0, 716.0, 715.0, 715.0, 716.0, 716.0, 715.0, 716.0, 717.0, 715.0, 715.0, 715.0, 716.0, 717.0, 716.0, 714.0, 716.0, 715.0, 715.0, 714.0, 715.0, 715.0, 716.0, 716.0, 717.0, 717.0, 716.0, 716.0, 716.0, 716.0, 716.0, 716.0, 715.0, 716.0, 715.0, 714.0, 716.0, 716.0, 716.0, 716.0, 716.0, 716.0, 715.0, 715.0, 716.0, 716.0, 715.0, 716.0, 716.0, 715.0, 716.0, 715.0, 715.0, 715.0, 716.0, 716.0, 716.0, 715.0, 716.0, 716.0, 717.0, 716.0, 715.0, 715.0, 715.0, 715.0, 716.0, 715.0, 715.0, 715.0, 715.0, 713.0, 715.0, 715.0, 717.0, 716.0, 715.0, 716.0],
      "WindowWidth": [1590.0, 1585.0, 1590.0, 1587.0, 1588.0, 1588.0, 1591.0, 1588.0, 1589.0, 1589.0, 1591.0, 1590.0, 1586.0, 1585.0, 1581.0, 1586.0, 1588.0, 1587.0, 1587.0, 1591.0, 1587.0, 1587.0, 1589.0, 1586.0, 1590.0, 1589.0, 1591.0, 1587.0, 1588.0, 1589.0, 1580.0, 1586.0, 1588.0, 1582.0, 1588.0, 1587.0, 1585.0, 1588.0, 1586.0, 1584.0, 1588.0, 1588.0, 1588.0, 1585.0, 1585.0, 1587.0, 1592.0, 1587.0, 1588.0, 1588.0, 1591.0, 1587.0, 1585.0, 1590.0, 1588.0, 1589.0, 1586.0, 1589.0, 1587.0, 1581.0, 1587.0, 1587.0, 1591.0, 1595.0, 1591.0, 1589.0, 1587.0, 1586.0, 1590.0, 1585.0, 1583.0, 1589.0, 1585.0, 1585.0, 1585.0, 1587.0, 1584.0, 1590.0, 1589.0, 1586.0, 1586.0, 1589.0, 1587.0, 1586.0, 1588.0, 1588.0, 1588.0, 1587.0, 1590.0, 1589.0, 1587.0, 1583.0, 1586.0, 1587.0, 1585.0, 1586.0, 1586.0, 1588.0, 1590.0, 1591.0, 1588.0, 1586.0, 1582.0, 1576.0, 1583.0, 1582.0, 1580.0, 1581.0, 1586.0, 1582.0, 1591.0, 1589.0, 1590.0, 1587.0, 1591.0, 1590.0, 1589.0, 1583.0, 1585.0, 1588.0, 1584.0, 1587.0, 1584.0, 1585.0, 1584.0, 1588.0, 1588.0, 1586.0, 1581.0, 1589.0, 1588.0, 1590.0, 1588.0, 1590.0, 1584.0, 1587.0, 1588.0, 1589.0, 1589.0, 1587.0, 1586.0, 1584.0, 1585.0, 1586.0, 1583.0, 1587.0, 1584.0, 1577.0, 1588.0, 1586.0, 1585.0, 1586.0, 1586.0, 1588.0, 1587.0, 1588.0, 1586.0, 1587.0, 1588.0, 1587.0, 1588.0, 1586.0, 1584.0, 1589.0, 1590.0, 1586.0, 1588.0, 1591.0, 1586.0, 1586.0, 1586.0, 1587.0, 1590.0, 1586.0, 1582.0, 1588.0, 1585.0, 1586.0, 1581.0, 1586.0, 1586.0, 1586.0, 1586.0, 1590.0, 1590.0, 1587.0, 1588.0, 1587.0, 1586.0, 1587.0, 1589.0, 1585.0, 1588.0, 1586.0, 1582.0, 1587.0, 1587.0, 1587.0, 1588.0, 1588.0, 1586.0, 1586.0, 1584.0, 1587.0, 1587.0, 1583.0, 1588.0, 1588.0, 1585.0, 1587.0, 1586.0, 1584.0, 1585.0, 1587.0, 1586.0, 1586.0, 1585.0, 1587.0, 1587.0, 1590.0, 1586.0, 1585.0, 1585.0, 1583.0, 1586.0, 1587.0, 1585.0, 1586.0, 1585.0, 1585.0, 1579.0, 1585.0, 1585.0, 1590.0, 1586.0, 1585.0, 1586.0]
    },
    "slices": {}
  }
}