{
  "AcquisitionMatrixPE": 70,
  "AcquisitionNumber": 1,
  "AcquisitionTime": "15:41:52.735000",
  "BandwidthPerPixelPhaseEncode": 38.873,
  "BaseResolution": 70,
  "BodyPartExamined": "HEAD",
  "ConsistencyInfo": "N4_VE11B_LATEST_20150530",
  "ConversionSoftware": "dcm2niix",
  "ConversionSoftwareVersion": "v1.0.20190410  GCC6.3.0",
  "DerivedVendorReportedEchoSpacing": 0.000489996,
  "DeviceSerialNumber": "66088",
  "DwellTime": 2.9e-06,
  "EchoTime": 0.03,
  "EchoTrainLength": 53,
  "EffectiveEchoSpacing": 0.000367497,
  "FlipAngle": 90,
  "ImageOrientationPatientDICOM": [0.999765, 0.000781231, 0.0216747, 0.00872484, 0.900438, -0.434896],
  "ImageType": [
    "ORIGINAL",
    "PRIMARY",
    "M",
    "ND",
    "NORM",
    "MOSAIC"
],
  "ImagingFrequency": 123.191,
  "InPlanePhaseEncodingDirectionDICOM": "COL",
  "InstitutionAddress": "Street_StreetNo_City_District_IR_ZIP",
  "InstitutionName": "NBML",
  "InstitutionalDepartmentName": "Department",
  "MRAcquisitionType": "2D",
  "MagneticFieldStrength": 3,
  "Manufacturer": "Siemens",
  "ManufacturersModelName": "Prisma",
  "Modality": "MR",
  "ParallelReductionFactorInPlane": 2,
  "PartialFourier": 1,
  "PatientPosition": "HFS",
  "PercentPhaseFOV": 100,
  "PhaseEncodingDirection": "j-",
  "PhaseEncodingSteps": 105,
  "PhaseOversampling": 0.5,
  "PhaseResolution": 1,
  "PixelBandwidth": 2465,
  "ProcedureStepDescription": "NBML_Project_P_96169_Ebrahiminiya-Khaliq",
  "ProtocolName": "ep2d_p2_Task_3.5_measurment:237",
  "PulseSequenceDetails": "%SiemensSeq%_ep2d_pace",
  "ReceiveCoilActiveElements": "HC1-7;NC1",
  "ReceiveCoilName": "HeadNeck_64",
  "ReconMatrixPE": 70,
  "RefLinesPE": 24,
  "RepetitionTime": 2,
  "SAR": 0.0939884,
  "ScanOptions": "FS",
  "ScanningSequence": "EP",
  "SequenceName": "_epfid2d1_70",
  "SequenceVariant": "SK_OSP",
  "SeriesDescription": "ep2d_p2_Task_3.5_measurment:237",
  "SeriesNumber": 7,
  "ShimSetting": [2612, -4506, -3221, 375, -19, -50, 53, 42],
  "SliceThickness": 3.5,
  "SliceTiming": [0.99, 0, 1.0475, 0.0575, 1.105, 0.1175, 1.165, 0.175, 1.2225, 0.2325, 1.28, 0.29, 1.34, 0.35, 1.3975, 0.4075, 1.455, 0.465, 1.515, 0.525, 1.5725, 0.5825, 1.63, 0.64, 1.6875, 0.6975, 1.7475, 0.7575, 1.805, 0.815, 1.8625, 0.8725, 1.9225, 0.9325],
  "SoftwareVersions": "syngo_MR_E11",
  "SpacingBetweenSlices": 3.85,
  "StationName": "AWP66088",
  "TaskName": "categorySelectivity",
  "TotalReadoutTime": 0.0253573,
  "TxRefAmp": 240.964,
  "dcmmeta_affine": [
    [-3.5420238971710205, 0.030910853296518326, 0.07644747197628021, 121.86128234863281],
    [-0.0027677910402417183, 3.190124988555908, -1.6746832132339478, -85.47254943847656],
    [0.07679035514593124, 1.540773868560791, 3.465846538543701, -84.56521606445312],
    [0.0, 0.0, 0.0, 1.0]
],
  "dcmmeta_reorient_transform": [
    [0.0, -1.0, 0.0, 69.0],
    [1.0, 0.0, 0.0, 0.0],
    [0.0, 0.0, 1.0, 0.0],
    [0.0, 0.0, 0.0, 1.0]
],
  "dcmmeta_shape": [70, 70, 34, 237],
  "dcmmeta_slice_dim": 2,
  "dcmmeta_version": 0.6,
  "global": {
    "const": {
      "AccessionNumber": "M.BRZ",
      "AcquisitionMatrix": [70, 0, 0, 70],
      "AngioFlag": "N",
      "BitsAllocated": 16,
      "BitsStored": 12,
      "BodyPartExamined": "HEAD",
      "Columns": 420,
      "EchoNumbers": 1,
      "EchoTime": 30.0,
      "EchoTrainLength": 53,
      "FlipAngle": 90.0,
      "HighBit": 11,
      "ImageOrientationPatient": [0.99976477090926, 0.0007812313552, 0.02167469783682, 0.00872483781122, 0.90043848882316, -0.434895855408],
      "ImagePositionPatient": [-749.25769235275, -693.40230195121, 277.94530214234],
      "ImageType": [
        "ORIGINAL",
        "PRIMARY",
        "M",
        "ND",
        "NORM",
        "MOSAIC"
],
      "ImagedNucleus": "1H",
      "ImagingFrequency": 123.191127,
      "InPlanePhaseEncodingDirection": "COL",
      "MRAcquisitionType": "2D",
      "MagneticFieldStrength": 3.0,
      "Manufacturer": "SIEMENS",
      "ManufacturerModelName": "Prisma",
      "Modality": "MR",
      "NumberOfAverages": 1.0,
      "NumberOfPhaseEncodingSteps": 105,
      "PercentPhaseFieldOfView": 100.0,
      "PercentSampling": 100.0,
      "PerformedProcedureStepStartTime": "145614.269000",
      "PhotometricInterpretation": "MONOCHROME2",
      "PixelBandwidth": 2465.0,
      "PixelRepresentation": 0,
      "PixelSpacing": [3.542857170105, 3.542857170105],
      "ProtocolName": "ep2d_p2_Task_3.5_measurment:237",
      "RepetitionTime": 2000.0,
      "Rows": 420,
      "SAR": 0.09398838999322,
      "SamplesPerPixel": 1,
      "ScanOptions": "FS",
      "ScanningSequence": "EP",
      "SequenceName": "*epfid2d1_70",
      "SequenceVariant": [
        "SK",
        "OSP"
],
      "SeriesDescription": "ep2d_p2_Task_3.5_measurment:237",
      "SeriesNumber": 7,
      "SeriesTime": "154238.710000",
      "SliceLocation": -36.528473029104,
      "SliceThickness": 3.5,
      "SmallestImagePixelValue": 0,
      "SoftwareVersions": "syngo MR E11",
      "SpacingBetweenSlices": 3.8499999419959,
      "SpecificCharacterSet": "ISO_IR 100",
      "StudyID": "1",
      "StudyTime": "145614.102000",
      "TransmitCoilName": "Body",
      "VariableFlipAngleFlag": "N",
      "WindowCenterWidthExplanation": "Algo1",
      "dBdt": 0.0},
    "slices": {}
  },
  "time": {
    "samples": {
      "AcquisitionNumber": [1, 2, 3, 4, 5, 6, 7, 8, 9, 10, 11, 12, 13, 14, 15, 16, 17, 18, 19, 20, 21, 22, 23, 24, 25, 26, 27, 28, 29, 30, 31, 32, 33, 34, 35, 36, 37, 38, 39, 40, 41, 42, 43, 44, 45, 46, 47, 48, 49, 50, 51, 52, 53, 54, 55, 56, 57, 58, 59, 60, 61, 62, 63, 64, 65, 66, 67, 68, 69, 70, 71, 72, 73, 74, 75, 76, 77, 78, 79, 80, 81, 82, 83, 84, 85, 86, 87, 88, 89, 90, 91, 92, 93, 94, 95, 96, 97, 98, 99, 100, 101, 102, 103, 104, 105, 106, 107, 108, 109, 110, 111, 112, 113, 114, 115, 116, 117, 118, 119, 120, 121, 122, 123, 124, 125, 126, 127, 128, 129, 130, 131, 132, 133, 134, 135, 136, 137, 138, 139, 140, 141, 142, 143, 144, 145, 146, 147, 148, 149, 150, 151, 152, 153, 154, 155, 156, 157, 158, 159, 160, 161, 162, 163, 164, 165, 166, 167, 168, 169, 170, 171, 172, 173, 174, 175, 176, 177, 178, 179, 180, 181, 182, 183, 184, 185, 186, 187, 188, 189, 190, 191, 192, 193, 194, 195, 196, 197, 198, 199, 200, 201, 202, 203, 204, 205, 206, 207, 208, 209, 210, 211, 212, 213, 214, 215, 216, 217, 218, 219, 220, 221, 222, 223, 224, 225, 226, 227, 228, 229, 230, 231, 232, 233, 234, 235, 236, 237],
      "AcquisitionTime": ["154152.735000", "154154.735000", "154156.735000", "154158.735000", "154200.735000", "154202.735000", "154204.735000", "154206.735000", "154208.735000", "154210.735000", "154212.735000", "154214.735000", "154216.735000", "154218.735000", "154220.735000", "154222.735000", "154224.735000", "154226.735000", "154228.735000", "154230.735000", "154232.735000", "154234.735000", "154236.735000", "154238.735000", "154240.735000", "154242.735000", "154244.735000", "154246.735000", "154248.735000", "154250.735000", "154252.735000", "154254.735000", "154256.735000", "154258.735000", "154300.735000", "154302.735000", "154304.735000", "154306.735000", "154308.735000", "154310.735000", "154312.735000", "154314.735000", "154316.735000", "154318.735000", "154320.735000", "154322.735000", "154324.735000", "154326.735000", "154328.735000", "154330.735000", "154332.735000", "154334.735000", "154336.735000", "154338.735000", "154340.735000", "154342.735000", "154344.735000", "154346.735000", "154348.735000", "154350.735000", "154352.735000", "154354.735000", "154356.735000", "154358.735000", "154400.735000", "154402.735000", "154404.735000", "154406.735000", "154408.735000", "154410.735000", "154412.735000", "154414.735000", "154416.735000", "154418.735000", "154420.735000", "154422.735000", "154424.735000", "154426.735000", "154428.735000", "154430.735000", "154432.735000", "154434.735000", "154436.735000", "154438.735000", "154440.735000", "154442.735000", "154444.735000", "154446.735000", "154448.735000", "154450.735000", "154452.735000", "154454.735000", "154456.735000", "154458.735000", "154500.735000", "154502.735000", "154504.735000", "154506.735000", "154508.735000", "154510.735000", "154512.735000", "154514.735000", "154516.735000", "154518.735000", "154520.735000", "154522.735000", "154524.735000", "154526.735000", "154528.735000", "154530.735000", "154532.735000", "154534.735000", "154536.735000", "154538.735000", "154540.735000", "154542.735000", "154544.735000", "154546.735000", "154548.735000", "154550.735000", "154552.735000", "154554.735000", "154556.735000", "154558.735000", "154600.735000", "154602.735000", "154604.735000", "154606.735000", "154608.735000", "154610.735000", "154612.735000", "154614.735000", "154616.735000", "154618.735000", "154620.735000", "154622.735000", "154624.735000", "154626.735000", "154628.735000", "154630.735000", "154632.735000", "154634.735000", "154636.735000", "154638.735000", "154640.735000", "154642.735000", "154644.735000", "154646.735000", "154648.735000", "154650.735000", "154652.735000", "154654.735000", "154656.735000", "154658.735000", "154700.735000", "154702.735000", "154704.735000", "154706.735000", "154708.735000", "154710.735000", "154712.735000", "154714.735000", "154716.735000", "154718.735000", "154720.735000", "154722.735000", "154724.735000", "154726.735000", "154728.735000", "154730.735000", "154732.735000", "154734.735000", "154736.735000", "154738.735000", "154740.735000", "154742.735000", "154744.735000", "154746.735000", "154748.735000", "154750.735000", "154752.735000", "154754.735000", "154756.735000", "154758.735000", "154800.735000", "154802.735000", "154804.735000", "154806.735000", "154808.735000", "154810.735000", "154812.735000", "154814.735000", "154816.735000", "154818.735000", "154820.735000", "154822.735000", "154824.735000", "154826.735000", "154828.735000", "154830.735000", "154832.735000", "154834.735000", "154836.735000", "154838.735000", "154840.735000", "154842.735000", "154844.735000", "154846.735000", "154848.735000", "154850.735000", "154852.735000", "154854.735000", "154856.735000", "154858.735000", "154900.735000", "154902.735000", "154904.735000", "154906.735000", "154908.735000", "154910.735000", "154912.735000", "154914.735000", "154916.735000", "154918.735000", "154920.735000", "154922.735000", "154924.735000", "154926.735000", "154928.735000", "154930.735000", "154932.735000", "154934.735000", "154936.735000", "154938.735000", "154940.735000", "154942.735000", "154944.735000"],
      "ContentTime": ["154238.714000", "154238.718000", "154238.720000", "154238.723000", "154238.725000", "154238.728000", "154238.731000", "154238.734000", "154238.736000", "154238.739000", "154238.741000", "154238.744000", "154238.746000", "154238.749000", "154238.751000", "154238.754000", "154238.757000", "154238.759000", "154238.762000", "154238.765000", "154238.767000", "154238.770000", "154238.772000", "154318.707000", "154318.709000", "154318.712000", "154318.714000", "154318.717000", "154318.719000", "154318.722000", "154318.724000", "154318.726000", "154318.729000", "154318.731000", "154318.734000", "154318.736000", "154318.739000", "154318.741000", "154318.743000", "154318.746000", "154318.748000", "154318.751000", "154318.753000", "154358.707000", "154358.710000", "154358.712000", "154358.715000", "154358.717000", "154358.720000", "154358.723000", "154358.725000", "154358.728000", "154358.731000", "154358.733000", "154358.736000", "154358.738000", "154358.741000", "154358.744000", "154358.746000", "154358.749000", "154358.751000", "154358.754000", "154358.756000", "154438.708000", "154438.711000", "154438.713000", "154438.716000", "154438.719000", "154438.721000", "154438.724000", "154438.726000", "154438.729000", "154438.732000", "154438.734000", "154438.737000", "154438.740000", "154438.742000", "154438.745000", "154438.748000", "154438.750000", "154438.753000", "154438.755000", "154438.758000", "154518.708000", "154518.710000", "154518.731000", "154518.734000", "154518.736000", "154518.739000", "154518.741000", "154518.743000", "154518.746000", "154518.748000", "154518.751000", "154518.759000", "154518.761000", "154518.764000", "154518.766000", "154518.769000", "154518.771000", "154518.773000", "154518.776000", "154518.778000", "154558.707000", "154558.710000", "154558.712000", "154558.715000", "154558.717000", "154558.719000", "154558.722000", "154558.724000", "154558.727000", "154558.729000", "154558.732000", "154558.734000", "154558.737000", "154558.739000", "154558.741000", "154558.744000", "154558.746000", "154558.749000", "154558.751000", "154558.753000", "154638.708000", "154638.711000", "154638.713000", "154638.716000", "154638.718000", "154638.721000", "154638.724000", "154638.726000", "154638.729000", "154638.732000", "154638.734000", "154638.737000", "154638.739000", "154638.742000", "154638.745000", "154638.747000", "154638.750000", "154638.752000", "154638.755000", "154638.757000", "154718.708000", "154718.711000", "154718.713000", "154718.716000", "154718.718000", "154718.721000", "154718.723000", "154718.726000", "154718.728000", "154718.731000", "154718.733000", "154718.735000", "154718.738000", "154718.740000", "154718.743000", "154718.745000", "154718.747000", "154718.750000", "154718.752000", "154718.755000", "154738.708000", "154738.711000", "154738.713000", "154738.715000", "154738.718000", "154738.720000", "154738.723000", "154738.725000", "154738.729000", "154738.731000", "154818.706000", "154818.709000", "154818.712000", "154818.714000", "154818.717000", "154818.719000", "154818.722000", "154818.724000", "154818.726000", "154818.729000", "154818.731000", "154818.734000", "154818.736000", "154818.739000", "154818.741000", "154818.747000", "154818.749000", "154818.752000", "154818.754000", "154818.756000", "154858.708000", "154858.710000", "154858.713000", "154858.715000", "154858.718000", "154858.720000", "154858.723000", "154858.725000", "154858.728000", "154858.730000", "154858.733000", "154858.735000", "154858.737000", "154858.740000", "154858.742000", "154858.745000", "154858.747000", "154858.749000", "154858.752000", "154858.754000", "154938.708000", "154938.711000", "154938.714000", "154938.716000", "154938.719000", "154938.721000", "154938.724000", "154938.727000", "154938.730000", "154938.732000", "154938.735000", "154938.737000", "154938.740000", "154938.742000", "154938.745000", "154938.748000", "154938.750000", "154938.753000", "154938.756000", "154938.758000", "154946.723000", "154946.726000", "154946.729000", "154946.733000"],
      "InstanceCreationTime": ["154238.714000", "154238.718000", "154238.720000", "154238.723000", "154238.725000", "154238.728000", "154238.731000", "154238.734000", "154238.736000", "154238.739000", "154238.741000", "154238.744000", "154238.746000", "154238.749000", "154238.751000", "154238.754000", "154238.757000", "154238.759000", "154238.762000", "154238.765000", "154238.767000", "154238.770000", "154238.772000", "154318.707000", "154318.709000", "154318.712000", "154318.714000", "154318.717000", "154318.719000", "154318.722000", "154318.724000", "154318.726000", "154318.729000", "154318.731000", "154318.734000", "154318.736000", "154318.739000", "154318.741000", "154318.743000", "154318.746000", "154318.748000", "154318.751000", "154318.753000", "154358.707000", "154358.710000", "154358.712000", "154358.715000", "154358.717000", "154358.720000", "154358.723000", "154358.725000", "154358.728000", "154358.731000", "154358.733000", "154358.736000", "154358.738000", "154358.741000", "154358.744000", "154358.746000", "154358.749000", "154358.751000", "154358.754000", "154358.756000", "154438.708000", "154438.711000", "154438.713000", "154438.716000", "154438.719000", "154438.721000", "154438.724000", "154438.726000", "154438.729000", "154438.732000", "154438.734000", "154438.737000", "154438.740000", "154438.742000", "154438.745000", "154438.748000", "154438.750000", "154438.753000", "154438.755000", "154438.758000", "154518.708000", "154518.710000", "154518.731000", "154518.734000", "154518.736000", "154518.739000", "154518.741000", "154518.743000", "154518.746000", "154518.748000", "154518.751000", "154518.759000", "154518.761000", "154518.764000", "154518.766000", "154518.769000", "154518.771000", "154518.773000", "154518.776000", "154518.778000", "154558.707000", "154558.710000", "154558.712000", "154558.715000", "154558.717000", "154558.719000", "154558.722000", "154558.724000", "154558.727000", "154558.729000", "154558.732000", "154558.734000", "154558.737000", "154558.739000", "154558.741000", "154558.744000", "154558.746000", "154558.749000", "154558.751000", "154558.753000", "154638.708000", "154638.711000", "154638.713000", "154638.716000", "154638.718000", "154638.721000", "154638.724000", "154638.726000", "154638.729000", "154638.732000", "154638.734000", "154638.737000", "154638.739000", "154638.742000", "154638.745000", "154638.747000", "154638.750000", "154638.752000", "154638.755000", "154638.757000", "154718.708000", "154718.711000", "154718.713000", "154718.716000", "154718.718000", "154718.721000", "154718.723000", "154718.726000", "154718.728000", "154718.731000", "154718.733000", "154718.735000", "154718.738000", "154718.740000", "154718.743000", "154718.745000", "154718.747000", "154718.750000", "154718.752000", "154718.755000", "154738.708000", "154738.711000", "154738.713000", "154738.715000", "154738.718000", "154738.720000", "154738.723000", "154738.725000", "154738.729000", "154738.731000", "154818.706000", "154818.709000", "154818.712000", "154818.714000", "154818.717000", "154818.719000", "154818.722000", "154818.724000", "154818.726000", "154818.729000", "154818.731000", "154818.734000", "154818.736000", "154818.739000", "154818.741000", "154818.747000", "154818.749000", "154818.752000", "154818.754000", "154818.756000", "154858.708000", "154858.710000", "154858.713000", "154858.715000", "154858.718000", "154858.720000", "154858.723000", "154858.725000", "154858.728000", "154858.730000", "154858.733000", "154858.735000", "154858.737000", "154858.740000", "154858.742000", "154858.745000", "154858.747000", "154858.749000", "154858.752000", "154858.754000", "154938.708000", "154938.711000", "154938.714000", "154938.716000", "154938.719000", "154938.721000", "154938.724000", "154938.727000", "154938.730000", "154938.732000", "154938.735000", "154938.737000", "154938.740000", "154938.742000", "154938.745000", "154938.748000", "154938.750000", "154938.753000", "154938.756000", "154938.758000", "154946.723000", "154946.726000", "154946.729000", "154946.733000"],
      "InstanceNumber": [1, 2, 3, 4, 5, 6, 7, 8, 9, 10, 11, 12, 13, 14, 15, 16, 17, 18, 19, 20, 21, 22, 23, 24, 25, 26, 27, 28, 29, 30, 31, 32, 33, 34, 35, 36, 37, 38, 39, 40, 41, 42, 43, 44, 45, 46, 47, 48, 49, 50, 51, 52, 53, 54, 55, 56, 57, 58, 59, 60, 61, 62, 63, 64, 65, 66, 67, 68, 69, 70, 71, 72, 73, 74, 75, 76, 77, 78, 79, 80, 81, 82, 83, 84, 85, 86, 87, 88, 89, 90, 91, 92, 93, 94, 95, 96, 97, 98, 99, 100, 101, 102, 103, 104, 105, 106, 107, 108, 109, 110, 111, 112, 113, 114, 115, 116, 117, 118, 119, 120, 121, 122, 123, 124, 125, 126, 127, 128, 129, 130, 131, 132, 133, 134, 135, 136, 137, 138, 139, 140, 141, 142, 143, 144, 145, 146, 147, 148, 149, 150, 151, 152, 153, 154, 155, 156, 157, 158, 159, 160, 161, 162, 163, 164, 165, 166, 167, 168, 169, 170, 171, 172, 173, 174, 175, 176, 177, 178, 179, 180, 181, 182, 183, 184, 185, 186, 187, 188, 189, 190, 191, 192, 193, 194, 195, 196, 197, 198, 199, 200, 201, 202, 203, 204, 205, 206, 207, 208, 209, 210, 211, 212, 213, 214, 215, 216, 217, 218, 219, 220, 221, 222, 223, 224, 225, 226, 227, 228, 229, 230, 231, 232, 233, 234, 235, 236, 237],
      "LargestImagePixelValue": [2637, 2542, 2108, 2809, 2653, 2584, 2308, 2682, 1777, 2345, 2220, 2075, 2410, 2498, 2602, 1890, 2212, 2244, 2134, 2267, 2561, 1994, 2251, 2667, 2037, 2352, 2326, 2058, 2804, 2122, 2429, 2077, 2146, 2302, 2058, 2552, 1993, 2196, 2531, 1860, 2167, 2135, 1980, 2837, 2382, 2579, 1921, 2268, 2205, 2623, 1878, 2123, 2329, 1977, 2462, 2555, 1935, 2502, 2330, 2032, 2036, 2367, 2405, 1888, 2258, 2224, 1962, 2190, 2078, 2639, 2657, 1911, 2422, 2283, 1803, 2204, 2263, 2544, 1714, 2390, 2485, 1805, 2318, 2291, 2054, 2346, 2269, 2186, 2134, 2372, 1891, 2360, 2384, 2272, 2568, 2106, 2367, 2669, 2024, 2486, 2348, 2015, 2158, 2431, 2085, 2372, 2643, 2140, 2336, 1857, 2488, 2402, 2002, 2299, 1848, 2484, 1848, 2470, 2512, 2064, 2480, 2154, 2549, 2450, 2070, 2192, 1758, 2418, 2356, 2449, 2593, 1911, 2336, 2105, 2124, 2596, 2657, 2415, 2385, 1873, 2478, 2503, 2217, 2167, 2363, 2067, 2664, 2432, 2191, 2473, 2528, 2354, 2797, 2584, 2060, 2461, 2615, 2191, 2483, 2785, 2193, 2568, 2424, 2640, 2278, 2423, 2677, 2409, 2084, 2374, 2107, 1998, 2608, 2641, 2672, 2466, 2115, 2581, 2536, 2411, 1987, 2592, 2283, 2187, 2532, 1999, 2594, 2366, 2489, 2465, 2123, 2826, 2545, 2395, 2333, 2557, 2340, 2505, 2057, 2553, 2469, 2260, 2658, 2562, 1867, 2467, 2674, 1940, 2573, 2712, 2400, 2472, 2569, 2264, 2830, 2457, 2245, 2580, 2682, 2525, 2116, 2536, 1899, 2535, 2540, 2279, 2655, 2527, 2307, 2544, 2049, 2449, 2414, 2358, 2358, 2228, 2445],
      "WindowCenter": [719.0, 719.0, 718.0, 719.0, 717.0, 717.0, 716.0, 716.0, 715.0, 717.0, 717.0, 717.0, 718.0, 717.0, 717.0, 715.0, 716.0, 717.0, 716.0, 715.0, 717.0, 715.0, 716.0, 717.0, 715.0, 716.0, 717.0, 717.0, 718.0, 715.0, 716.0, 715.0, 715.0, 716.0, 716.0, 716.0, 716.0, 717.0, 717.0, 714.0, 717.0, 717.0, 716.0, 717.0, 716.0, 716.0, 715.0, 716.0, 716.0, 716.0, 714.0, 716.0, 717.0, 715.0, 717.0, 717.0, 715.0, 716.0, 715.0, 715.0, 716.0, 716.0, 716.0, 715.0, 716.0, 716.0, 715.0, 716.0, 716.0, 717.0, 716.0, 714.0, 715.0, 715.0, 714.0, 716.0, 716.0, 717.0, 715.0, 716.0, 716.0, 714.0, 716.0, 716.0, 715.0, 716.0, 716.0, 715.0, 715.0, 716.0, 715.0, 716.0, 717.0, 715.0, 716.0, 716.0, 716.0, 716.0, 715.0, 716.0, 716.0, 716.0, 716.0, 717.0, 716.0, 716.0, 717.0, 715.0, 716.0, 715.0, 716.0, 715.0, 715.0, 716.0, 715.0, 717.0, 715.0, 717.0, 716.0, 715.0, 716.0, 715.0, 716.0, 715.0, 715.0, 716.0, 715.0, 717.0, 717.0, 716.0, 716.0, 714.0, 716.0, 716.0, 716.0, 716.0, 716.0, 715.0, 715.0, 714.0, 716.0, 715.0, 715.0, 716.0, 716.0, 716.0, 717.0, 717.0, 716.0, 717.0, 717.0, 715.0, 716.0, 716.0, 715.0, 716.0, 716.0, 716.0, 716.0, 716.0, 714.0, 715.0, 716.0, 717.0, 716.0, 717.0, 716.0, 715.0, 715.0, 717.0, 717.0, 716.0, 718.0, 717.0, 716.0, 715.0, 715.0, 716.0, 716.0, 716.0, 715.0, 716.0, 716.0, 716.0, 717.0, 717.0, 717.0, 717.0, 717.0, 717.0, 715.0, 716.0, 716.0, 717.0, 716.0, 716.0, 715.0, 715.0, 715.0, 716.0, 716.0, 715.0, 716.0, 716.0, 715.0, 716.0, 717.0, 715.0, 717.0, 717.0, 717.0, 716.0, 717.0, 715.0, 716.0, 715.0, 716.0, 716.0, 716.0, 716.0, 716.0, 716.0, 715.0, 716.0, 716.0, 715.0, 715.0, 715.0, 715.0, 715.0, 714.0, 715.0, 716.0, 716.0, 715.0, 715.0, 716.0],
      "WindowWidth": [1598.0, 1598.0, 1594.0, 1597.0, 1593.0, 1591.0, 1588.0, 1590.0, 1584.0, 1591.0, 1591.0, 1590.0, 1594.0, 1592.0, 1591.0, 1584.0, 1589.0, 1590.0, 1587.0, 1588.0, 1591.0, 1587.0, 1589.0, 1592.0, 1585.0, 1589.0, 1591.0, 1590.0, 1595.0, 1587.0, 1589.0, 1586.0, 1585.0, 1588.0, 1587.0, 1591.0, 1588.0, 1591.0, 1593.0, 1584.0, 1590.0, 1591.0, 1589.0, 1593.0, 1589.0, 1589.0, 1584.0, 1588.0, 1589.0, 1590.0, 1583.0, 1589.0, 1592.0, 1587.0, 1591.0, 1591.0, 1584.0, 1589.0, 1587.0, 1585.0, 1588.0, 1590.0, 1589.0, 1585.0, 1588.0, 1587.0, 1584.0, 1587.0, 1588.0, 1591.0, 1589.0, 1582.0, 1587.0, 1585.0, 1583.0, 1590.0, 1589.0, 1591.0, 1584.0, 1590.0, 1589.0, 1581.0, 1588.0, 1588.0, 1586.0, 1588.0, 1587.0, 1586.0, 1586.0, 1588.0, 1584.0, 1589.0, 1590.0, 1587.0, 1589.0, 1588.0, 1590.0, 1591.0, 1585.0, 1589.0, 1587.0, 1587.0, 1589.0, 1591.0, 1588.0, 1589.0, 1591.0, 1585.0, 1587.0, 1585.0, 1589.0, 1587.0, 1585.0, 1588.0, 1585.0, 1591.0, 1584.0, 1591.0, 1589.0, 1584.0, 1587.0, 1586.0, 1587.0, 1586.0, 1585.0, 1587.0, 1583.0, 1591.0, 1591.0, 1589.0, 1588.0, 1582.0, 1588.0, 1589.0, 1587.0, 1589.0, 1587.0, 1586.0, 1585.0, 1581.0, 1587.0, 1586.0, 1586.0, 1587.0, 1589.0, 1587.0, 1592.0, 1590.0, 1587.0, 1591.0, 1590.0, 1586.0, 1589.0, 1588.0, 1584.0, 1588.0, 1590.0, 1589.0, 1590.0, 1590.0, 1583.0, 1586.0, 1589.0, 1591.0, 1588.0, 1590.0, 1588.0, 1586.0, 1585.0, 1593.0, 1592.0, 1589.0, 1594.0, 1592.0, 1588.0, 1586.0, 1584.0, 1589.0, 1588.0, 1587.0, 1584.0, 1590.0, 1589.0, 1587.0, 1592.0, 1589.0, 1592.0, 1592.0, 1592.0, 1591.0, 1584.0, 1589.0, 1589.0, 1591.0, 1589.0, 1588.0, 1586.0, 1587.0, 1584.0, 1589.0, 1588.0, 1586.0, 1590.0, 1589.0, 1584.0, 1588.0, 1592.0, 1585.0, 1591.0, 1593.0, 1591.0, 1589.0, 1591.0, 1585.0, 1588.0, 1587.0, 1589.0, 1588.0, 1588.0, 1589.0, 1587.0, 1589.0, 1584.0, 1590.0, 1589.0, 1584.0, 1586.0, 1586.0, 1584.0, 1584.0, 1581.0, 1586.0, 1587.0, 1588.0, 1586.0, 1586.0, 1588.0]
    },
    "slices": {}
  }
}