{
  "AcquisitionMatrixPE": 70,
  "AcquisitionNumber": 1,
  "AcquisitionTime": "15:04:43.907500",
  "BandwidthPerPixelPhaseEncode": 38.873,
  "BaseResolution": 70,
  "BodyPartExamined": "HEAD",
  "ConsistencyInfo": "N4_VE11B_LATEST_20150530",
  "ConversionSoftware": "dcm2niix",
  "ConversionSoftwareVersion": "v1.0.20190410  GCC6.3.0",
  "DerivedVendorReportedEchoSpacing": 0.000489996,
  "DeviceSerialNumber": "66088",
  "DwellTime": 2.9e-06,
  "EchoTime": 0.03,
  "EchoTrainLength": 53,
  "EffectiveEchoSpacing": 0.000367497,
  "FlipAngle": 90,
  "ImageOrientationPatientDICOM": [0.999765, 0.000781231, 0.0216747, 0.00872484, 0.900438, -0.434896],
  "ImageType": [
    "ORIGINAL",
    "PRIMARY",
    "M",
    "ND",
    "NORM",
    "MOSAIC"
],
  "ImagingFrequency": 123.191,
  "InPlanePhaseEncodingDirectionDICOM": "COL",
  "InstitutionAddress": "Street_StreetNo_City_District_IR_ZIP",
  "InstitutionName": "NBML",
  "InstitutionalDepartmentName": "Department",
  "MRAcquisitionType": "2D",
  "MagneticFieldStrength": 3,
  "Manufacturer": "Siemens",
  "ManufacturersModelName": "Prisma",
  "Modality": "MR",
  "ParallelReductionFactorInPlane": 2,
  "PartialFourier": 1,
  "PatientPosition": "HFS",
  "PercentPhaseFOV": 100,
  "PhaseEncodingDirection": "j-",
  "PhaseEncodingSteps": 105,
  "PhaseOversampling": 0.5,
  "PhaseResolution": 1,
  "PixelBandwidth": 2465,
  "ProcedureStepDescription": "NBML_Project_P_96169_Ebrahiminiya-Khaliq",
  "ProtocolName": "ep2d_p2_Task_3.5_measurment:237",
  "PulseSequenceDetails": "%SiemensSeq%_ep2d_pace",
  "ReceiveCoilActiveElements": "HC1-7;NC1",
  "ReceiveCoilName": "HeadNeck_64",
  "ReconMatrixPE": 70,
  "RefLinesPE": 24,
  "RepetitionTime": 2,
  "SAR": 0.0939884,
  "ScanOptions": "FS",
  "ScanningSequence": "EP",
  "SequenceName": "_epfid2d1_70",
  "SequenceVariant": "SK_OSP",
  "SeriesDescription": "ep2d_p2_Task_3.5_measurment:237",
  "SeriesNumber": 3,
  "ShimSetting": [2612, -4506, -3221, 375, -19, -50, 53, 42],
  "SliceThickness": 3.5,
  "SliceTiming": [0.99, 0, 1.0475, 0.0575, 1.105, 0.115, 1.165, 0.175, 1.2225, 0.2325, 1.28, 0.29, 1.3375, 0.3475, 1.3975, 0.4075, 1.455, 0.465, 1.5125, 0.5225, 1.5725, 0.5825, 1.63, 0.64, 1.6875, 0.6975, 1.745, 0.755, 1.805, 0.815, 1.8625, 0.8725, 1.92, 0.93],
  "SoftwareVersions": "syngo_MR_E11",
  "SpacingBetweenSlices": 3.85,
  "StationName": "AWP66088",
  "TaskName": "categorySelectivity",
  "TotalReadoutTime": 0.0253573,
  "TxRefAmp": 240.964,
  "dcmmeta_affine": [
    [-3.5420238971710205, 0.030910853296518326, 0.07644747197628021, 121.86128234863281],
    [-0.0027677910402417183, 3.190124988555908, -1.6746832132339478, -85.47254943847656],
    [0.07679035514593124, 1.540773868560791, 3.465846538543701, -84.56521606445312],
    [0.0, 0.0, 0.0, 1.0]
],
  "dcmmeta_reorient_transform": [
    [0.0, -1.0, 0.0, 69.0],
    [1.0, 0.0, 0.0, 0.0],
    [0.0, 0.0, 1.0, 0.0],
    [0.0, 0.0, 0.0, 1.0]
],
  "dcmmeta_shape": [70, 70, 34, 237],
  "dcmmeta_slice_dim": 2,
  "dcmmeta_version": 0.6,
  "global": {
    "const": {
      "AccessionNumber": "M.BRZ",
      "AcquisitionMatrix": [70, 0, 0, 70],
      "AngioFlag": "N",
      "BitsAllocated": 16,
      "BitsStored": 12,
      "BodyPartExamined": "HEAD",
      "Columns": 420,
      "EchoNumbers": 1,
      "EchoTime": 30.0,
      "EchoTrainLength": 53,
      "FlipAngle": 90.0,
      "HighBit": 11,
      "ImageOrientationPatient": [0.99976477090926, 0.0007812313552, 0.02167469783682, 0.00872483781122, 0.90043848882316, -0.434895855408],
      "ImagePositionPatient": [-749.25769235275, -693.40230195121, 277.94530214234],
      "ImageType": [
        "ORIGINAL",
        "PRIMARY",
        "M",
        "ND",
        "NORM",
        "MOSAIC"
],
      "ImagedNucleus": "1H",
      "ImagingFrequency": 123.191132,
      "InPlanePhaseEncodingDirection": "COL",
      "MRAcquisitionType": "2D",
      "MagneticFieldStrength": 3.0,
      "Manufacturer": "SIEMENS",
      "ManufacturerModelName": "Prisma",
      "Modality": "MR",
      "NumberOfAverages": 1.0,
      "NumberOfPhaseEncodingSteps": 105,
      "PercentPhaseFieldOfView": 100.0,
      "PercentSampling": 100.0,
      "PerformedProcedureStepStartTime": "145614.269000",
      "PhotometricInterpretation": "MONOCHROME2",
      "PixelBandwidth": 2465.0,
      "PixelRepresentation": 0,
      "PixelSpacing": [3.542857170105, 3.542857170105],
      "ProtocolName": "ep2d_p2_Task_3.5_measurment:237",
      "RepetitionTime": 2000.0,
      "Rows": 420,
      "SAR": 0.09398838999322,
      "SamplesPerPixel": 1,
      "ScanOptions": "FS",
      "ScanningSequence": "EP",
      "SequenceName": "*epfid2d1_70",
      "SequenceVariant": [
        "SK",
        "OSP"
],
      "SeriesDescription": "ep2d_p2_Task_3.5_measurment:237",
      "SeriesNumber": 3,
      "SeriesTime": "150525.873000",
      "SliceLocation": -36.528473029104,
      "SliceThickness": 3.5,
      "SmallestImagePixelValue": 0,
      "SoftwareVersions": "syngo MR E11",
      "SpacingBetweenSlices": 3.8499999419959,
      "SpecificCharacterSet": "ISO_IR 100",
      "StudyID": "1",
      "StudyTime": "145614.102000",
      "TransmitCoilName": "Body",
      "VariableFlipAngleFlag": "N",
      "WindowCenterWidthExplanation": "Algo1",
      "dBdt": 0.0},
    "slices": {}
  },
  "time": {
    "samples": {
      "AcquisitionNumber": [1, 2, 3, 4, 5, 6, 7, 8, 9, 10, 11, 12, 13, 14, 15, 16, 17, 18, 19, 20, 21, 22, 23, 24, 25, 26, 27, 28, 29, 30, 31, 32, 33, 34, 35, 36, 37, 38, 39, 40, 41, 42, 43, 44, 45, 46, 47, 48, 49, 50, 51, 52, 53, 54, 55, 56, 57, 58, 59, 60, 61, 62, 63, 64, 65, 66, 67, 68, 69, 70, 71, 72, 73, 74, 75, 76, 77, 78, 79, 80, 81, 82, 83, 84, 85, 86, 87, 88, 89, 90, 91, 92, 93, 94, 95, 96, 97, 98, 99, 100, 101, 102, 103, 104, 105, 106, 107, 108, 109, 110, 111, 112, 113, 114, 115, 116, 117, 118, 119, 120, 121, 122, 123, 124, 125, 126, 127, 128, 129, 130, 131, 132, 133, 134, 135, 136, 137, 138, 139, 140, 141, 142, 143, 144, 145, 146, 147, 148, 149, 150, 151, 152, 153, 154, 155, 156, 157, 158, 159, 160, 161, 162, 163, 164, 165, 166, 167, 168, 169, 170, 171, 172, 173, 174, 175, 176, 177, 178, 179, 180, 181, 182, 183, 184, 185, 186, 187, 188, 189, 190, 191, 192, 193, 194, 195, 196, 197, 198, 199, 200, 201, 202, 203, 204, 205, 206, 207, 208, 209, 210, 211, 212, 213, 214, 215, 216, 217, 218, 219, 220, 221, 222, 223, 224, 225, 226, 227, 228, 229, 230, 231, 232, 233, 234, 235, 236, 237],
      "AcquisitionTime": ["150443.907500", "150445.907500", "150447.907500", "150449.907500", "150451.907500", "150453.907500", "150455.907500", "150457.907500", "150459.907500", "150501.907500", "150503.907500", "150505.907500", "150507.907500", "150509.907500", "150511.907500", "150513.907500", "150515.907500", "150517.907500", "150519.907500", "150521.907500", "150523.907500", "150525.907500", "150527.907500", "150529.907500", "150531.907500", "150533.907500", "150535.907500", "150537.907500", "150539.907500", "150541.907500", "150543.907500", "150545.907500", "150547.907500", "150549.907500", "150551.907500", "150553.907500", "150555.907500", "150557.907500", "150559.907500", "150601.907500", "150603.907500", "150605.907500", "150607.907500", "150609.907500", "150611.907500", "150613.907500", "150615.907500", "150617.907500", "150619.907500", "150621.907500", "150623.907500", "150625.907500", "150627.907500", "150629.907500", "150631.907500", "150633.907500", "150635.907500", "150637.907500", "150639.907500", "150641.907500", "150643.907500", "150645.907500", "150647.907500", "150649.907500", "150651.907500", "150653.907500", "150655.907500", "150657.907500", "150659.907500", "150701.907500", "150703.907500", "150705.907500", "150707.907500", "150709.907500", "150711.907500", "150713.907500", "150715.907500", "150717.907500", "150719.907500", "150721.907500", "150723.907500", "150725.907500", "150727.907500", "150729.907500", "150731.907500", "150733.907500", "150735.907500", "150737.907500", "150739.907500", "150741.907500", "150743.907500", "150745.907500", "150747.907500", "150749.907500", "150751.907500", "150753.907500", "150755.907500", "150757.907500", "150759.907500", "150801.907500", "150803.907500", "150805.907500", "150807.907500", "150809.907500", "150811.907500", "150813.907500", "150815.907500", "150817.907500", "150819.907500", "150821.907500", "150823.907500", "150825.907500", "150827.907500", "150829.907500", "150831.907500", "150833.907500", "150835.907500", "150837.907500", "150839.907500", "150841.907500", "150843.907500", "150845.907500", "150847.907500", "150849.907500", "150851.907500", "150853.907500", "150855.907500", "150857.907500", "150859.907500", "150901.907500", "150903.907500", "150905.907500", "150907.907500", "150909.907500", "150911.907500", "150913.907500", "150915.907500", "150917.907500", "150919.907500", "150921.907500", "150923.907500", "150925.907500", "150927.907500", "150929.907500", "150931.907500", "150933.907500", "150935.907500", "150937.907500", "150939.907500", "150941.907500", "150943.907500", "150945.907500", "150947.907500", "150949.907500", "150951.907500", "150953.907500", "150955.907500", "150957.907500", "150959.907500", "151001.907500", "151003.907500", "151005.907500", "151007.907500", "151009.907500", "151011.907500", "151013.907500", "151015.907500", "151017.907500", "151019.907500", "151021.907500", "151023.907500", "151025.907500", "151027.907500", "151029.907500", "151031.907500", "151033.907500", "151035.907500", "151037.907500", "151039.907500", "151041.907500", "151043.907500", "151045.907500", "151047.907500", "151049.907500", "151051.907500", "151053.907500", "151055.907500", "151057.907500", "151059.907500", "151101.907500", "151103.907500", "151105.907500", "151107.907500", "151109.907500", "151111.907500", "151113.907500", "151115.907500", "151117.907500", "151119.907500", "151121.907500", "151123.907500", "151125.907500", "151127.907500", "151129.907500", "151131.907500", "151133.907500", "151135.907500", "151137.907500", "151139.907500", "151141.907500", "151143.907500", "151145.907500", "151147.907500", "151149.907500", "151151.907500", "151153.907500", "151155.907500", "151157.907500", "151159.907500", "151201.907500", "151203.907500", "151205.907500", "151207.907500", "151209.907500", "151211.907500", "151213.907500", "151215.907500", "151217.907500", "151219.907500", "151221.907500", "151223.907500", "151225.907500", "151227.907500", "151229.907500", "151231.907500", "151233.907500", "151235.907500"],
      "ContentTime": ["150525.878000", "150525.882000", "150525.884000", "150525.887000", "150525.889000", "150525.891000", "150525.894000", "150525.896000", "150525.899000", "150525.901000", "150525.904000", "150525.906000", "150525.909000", "150525.911000", "150525.913000", "150525.916000", "150525.938000", "150525.940000", "150525.943000", "150525.945000", "150525.950000", "150605.870000", "150605.873000", "150605.875000", "150605.877000", "150605.885000", "150605.895000", "150605.897000", "150605.900000", "150605.902000", "150605.904000", "150605.907000", "150605.909000", "150605.912000", "150605.914000", "150605.917000", "150605.920000", "150605.922000", "150605.925000", "150605.927000", "150605.930000", "150645.871000", "150645.874000", "150645.876000", "150645.878000", "150645.881000", "150645.884000", "150645.886000", "150645.888000", "150645.891000", "150645.893000", "150645.895000", "150645.898000", "150645.900000", "150645.903000", "150645.905000", "150645.908000", "150645.910000", "150645.913000", "150645.915000", "150645.918000", "150725.871000", "150725.874000", "150725.877000", "150725.879000", "150725.881000", "150725.884000", "150725.886000", "150725.889000", "150725.891000", "150725.894000", "150725.896000", "150725.910000", "150725.912000", "150725.915000", "150725.917000", "150725.920000", "150725.922000", "150725.925000", "150725.927000", "150725.929000", "150745.871000", "150745.874000", "150745.876000", "150745.879000", "150745.881000", "150745.883000", "150745.886000", "150745.888000", "150745.890000", "150745.893000", "150825.870000", "150825.873000", "150825.876000", "150825.879000", "150825.881000", "150825.884000", "150825.887000", "150825.890000", "150825.899000", "150825.902000", "150825.905000", "150825.907000", "150825.910000", "150825.913000", "150825.915000", "150825.918000", "150825.920000", "150825.923000", "150825.926000", "150825.928000", "150905.871000", "150905.874000", "150905.877000", "150905.879000", "150905.881000", "150905.884000", "150905.886000", "150905.889000", "150905.891000", "150905.894000", "150905.896000", "150905.899000", "150905.901000", "150905.903000", "150905.906000", "150905.909000", "150905.911000", "150905.913000", "150905.916000", "150905.918000", "150945.872000", "150945.875000", "150945.877000", "150945.879000", "150945.882000", "150945.884000", "150945.887000", "150945.889000", "150945.892000", "150945.894000", "150945.896000", "150945.899000", "150945.901000", "150945.903000", "150945.906000", "150945.908000", "150945.911000", "150945.913000", "150945.916000", "150945.918000", "151025.872000", "151025.874000", "151025.877000", "151025.879000", "151025.882000", "151025.884000", "151025.887000", "151025.889000", "151025.891000", "151025.894000", "151025.896000", "151025.899000", "151025.901000", "151025.903000", "151025.906000", "151025.908000", "151025.910000", "151025.913000", "151025.915000", "151025.918000", "151105.872000", "151105.875000", "151105.878000", "151105.880000", "151105.883000", "151105.885000", "151105.888000", "151105.891000", "151105.893000", "151105.896000", "151105.899000", "151105.902000", "151105.904000", "151105.907000", "151105.909000", "151105.912000", "151105.915000", "151105.917000", "151105.920000", "151105.922000", "151145.872000", "151145.875000", "151145.877000", "151145.880000", "151145.882000", "151145.886000", "151145.888000", "151145.891000", "151145.893000", "151145.896000", "151145.898000", "151145.901000", "151145.903000", "151145.906000", "151145.908000", "151145.911000", "151145.914000", "151145.916000", "151145.919000", "151145.921000", "151225.871000", "151225.875000", "151225.877000", "151225.880000", "151225.883000", "151225.885000", "151225.888000", "151225.890000", "151225.893000", "151225.896000", "151225.898000", "151225.901000", "151225.903000", "151225.906000", "151225.908000", "151225.911000", "151225.913000", "151225.916000", "151225.918000", "151225.921000", "151237.175000", "151237.184000", "151237.188000", "151237.190000", "151237.194000", "151237.211000"],
      "InstanceCreationTime": ["150525.878000", "150525.882000", "150525.884000", "150525.887000", "150525.889000", "150525.891000", "150525.894000", "150525.896000", "150525.899000", "150525.901000", "150525.904000", "150525.906000", "150525.909000", "150525.911000", "150525.913000", "150525.916000", "150525.938000", "150525.940000", "150525.943000", "150525.945000", "150525.950000", "150605.870000", "150605.873000", "150605.875000", "150605.877000", "150605.885000", "150605.895000", "150605.897000", "150605.900000", "150605.902000", "150605.904000", "150605.907000", "150605.909000", "150605.912000", "150605.914000", "150605.917000", "150605.920000", "150605.922000", "150605.925000", "150605.927000", "150605.930000", "150645.871000", "150645.874000", "150645.876000", "150645.878000", "150645.881000", "150645.884000", "150645.886000", "150645.888000", "150645.891000", "150645.893000", "150645.895000", "150645.898000", "150645.900000", "150645.903000", "150645.905000", "150645.908000", "150645.910000", "150645.913000", "150645.915000", "150645.918000", "150725.871000", "150725.874000", "150725.877000", "150725.879000", "150725.881000", "150725.884000", "150725.886000", "150725.889000", "150725.891000", "150725.894000", "150725.896000", "150725.910000", "150725.912000", "150725.915000", "150725.917000", "150725.920000", "150725.922000", "150725.925000", "150725.927000", "150725.929000", "150745.871000", "150745.874000", "150745.876000", "150745.879000", "150745.881000", "150745.883000", "150745.886000", "150745.888000", "150745.890000", "150745.893000", "150825.870000", "150825.873000", "150825.876000", "150825.879000", "150825.881000", "150825.884000", "150825.887000", "150825.890000", "150825.899000", "150825.902000", "150825.905000", "150825.907000", "150825.910000", "150825.913000", "150825.915000", "150825.918000", "150825.920000", "150825.923000", "150825.926000", "150825.928000", "150905.871000", "150905.874000", "150905.877000", "150905.879000", "150905.881000", "150905.884000", "150905.886000", "150905.889000", "150905.891000", "150905.894000", "150905.896000", "150905.899000", "150905.901000", "150905.903000", "150905.906000", "150905.909000", "150905.911000", "150905.913000", "150905.916000", "150905.918000", "150945.872000", "150945.875000", "150945.877000", "150945.879000", "150945.882000", "150945.884000", "150945.887000", "150945.889000", "150945.892000", "150945.894000", "150945.896000", "150945.899000", "150945.901000", "150945.903000", "150945.906000", "150945.908000", "150945.911000", "150945.913000", "150945.916000", "150945.918000", "151025.872000", "151025.874000", "151025.877000", "151025.879000", "151025.882000", "151025.884000", "151025.887000", "151025.889000", "151025.891000", "151025.894000", "151025.896000", "151025.899000", "151025.901000", "151025.903000", "151025.906000", "151025.908000", "151025.910000", "151025.913000", "151025.915000", "151025.918000", "151105.872000", "151105.875000", "151105.878000", "151105.880000", "151105.883000", "151105.885000", "151105.888000", "151105.891000", "151105.893000", "151105.896000", "151105.899000", "151105.902000", "151105.904000", "151105.907000", "151105.909000", "151105.912000", "151105.915000", "151105.917000", "151105.920000", "151105.922000", "151145.872000", "151145.875000", "151145.877000", "151145.880000", "151145.882000", "151145.886000", "151145.888000", "151145.891000", "151145.893000", "151145.896000", "151145.898000", "151145.901000", "151145.903000", "151145.906000", "151145.908000", "151145.911000", "151145.914000", "151145.916000", "151145.919000", "151145.921000", "151225.871000", "151225.875000", "151225.877000", "151225.880000", "151225.883000", "151225.885000", "151225.888000", "151225.890000", "151225.893000", "151225.896000", "151225.898000", "151225.901000", "151225.903000", "151225.906000", "151225.908000", "151225.911000", "151225.913000", "151225.916000", "151225.918000", "151225.921000", "151237.175000", "151237.184000", "151237.188000", "151237.190000", "151237.194000", "151237.211000"],
      "InstanceNumber": [1, 2, 3, 4, 5, 6, 7, 8, 9, 10, 11, 12, 13, 14, 15, 16, 17, 18, 19, 20, 21, 22, 23, 24, 25, 26, 27, 28, 29, 30, 31, 32, 33, 34, 35, 36, 37, 38, 39, 40, 41, 42, 43, 44, 45, 46, 47, 48, 49, 50, 51, 52, 53, 54, 55, 56, 57, 58, 59, 60, 61, 62, 63, 64, 65, 66, 67, 68, 69, 70, 71, 72, 73, 74, 75, 76, 77, 78, 79, 80, 81, 82, 83, 84, 85, 86, 87, 88, 89, 90, 91, 92, 93, 94, 95, 96, 97, 98, 99, 100, 101, 102, 103, 104, 105, 106, 107, 108, 109, 110, 111, 112, 113, 114, 115, 116, 117, 118, 119, 120, 121, 122, 123, 124, 125, 126, 127, 128, 129, 130, 131, 132, 133, 134, 135, 136, 137, 138, 139, 140, 141, 142, 143, 144, 145, 146, 147, 148, 149, 150, 151, 152, 153, 154, 155, 156, 157, 158, 159, 160, 161, 162, 163, 164, 165, 166, 167, 168, 169, 170, 171, 172, 173, 174, 175, 176, 177, 178, 179, 180, 181, 182, 183, 184, 185, 186, 187, 188, 189, 190, 191, 192, 193, 194, 195, 196, 197, 198, 199, 200, 201, 202, 203, 204, 205, 206, 207, 208, 209, 210, 211, 212, 213, 214, 215, 216, 217, 218, 219, 220, 221, 222, 223, 224, 225, 226, 227, 228, 229, 230, 231, 232, 233, 234, 235, 236, 237],
      "LargestImagePixelValue": [1818, 1698, 2549, 2338, 2272, 1923, 2050, 2199, 1677, 1835, 1737, 2419, 1779, 2222, 1773, 2449, 1802, 1997, 1766, 1685, 2144, 2023, 2392, 2057, 1918, 2193, 1772, 2301, 1873, 1684, 2069, 1900, 2063, 2022, 2218, 1699, 2372, 1663, 2016, 2000, 1690, 2380, 1666, 1851, 1691, 1917, 2631, 1776, 1747, 2222, 2222, 1728, 1732, 2253, 1879, 1647, 1970, 2203, 2058, 1828, 1682, 1939, 1703, 2353, 2398, 2227, 2327, 1705, 1814, 1624, 2243, 1981, 2242, 1826, 2219, 1649, 2404, 1782, 1861, 2161, 1694, 2092, 2194, 2082, 1669, 1733, 2035, 2160, 2340, 2108, 1713, 1823, 1801, 1899, 1641, 1788, 1636, 1658, 1637, 1694, 1668, 1666, 1916, 1759, 2437, 2032, 2147, 2335, 2236, 2280, 2146, 1657, 1724, 2776, 1961, 1665, 1677, 2204, 1634, 1643, 2368, 1641, 2262, 1633, 2429, 1646, 1833, 1948, 2754, 1688, 1704, 2228, 1755, 1639, 2010, 2072, 1639, 1844, 2245, 1967, 1630, 2192, 2335, 2113, 1690, 1620, 1812, 1657, 1805, 2366, 1933, 1697, 1652, 1976, 2299, 1996, 1901, 1666, 2325, 1896, 1642, 2573, 1631, 1626, 2378, 2073, 2125, 1701, 2413, 1673, 2193, 1676, 2360, 1667, 1648, 1923, 1841, 2115, 1708, 2316, 1853, 2196, 1678, 1662, 1925, 2004, 2250, 2181, 1641, 2249, 1647, 2403, 1656, 2398, 1652, 2295, 1676, 2217, 1647, 2166, 1642, 2093, 2510, 1798, 2497, 1667, 2131, 1649, 2347, 1644, 2274, 1657, 2350, 1637, 2262, 1653, 2041, 1731, 1663, 1650, 1995, 2093, 2286, 1629, 2046, 1838, 1866, 1649, 2177, 1822, 2387, 2064, 1911, 1634, 2522, 1681, 1646],
      "WindowCenter": [719.0, 719.0, 720.0, 718.0, 718.0, 718.0, 719.0, 720.0, 718.0, 720.0, 719.0, 721.0, 719.0, 720.0, 719.0, 720.0, 719.0, 719.0, 719.0, 719.0, 721.0, 721.0, 721.0, 719.0, 719.0, 720.0, 719.0, 720.0, 720.0, 719.0, 721.0, 720.0, 720.0, 720.0, 720.0, 720.0, 722.0, 720.0, 720.0, 720.0, 719.0, 721.0, 720.0, 721.0, 721.0, 720.0, 722.0, 720.0, 720.0, 720.0, 720.0, 720.0, 720.0, 722.0, 721.0, 719.0, 720.0, 720.0, 720.0, 719.0, 721.0, 722.0, 720.0, 720.0, 721.0, 719.0, 721.0, 719.0, 721.0, 719.0, 720.0, 720.0, 720.0, 718.0, 719.0, 719.0, 720.0, 718.0, 717.0, 721.0, 719.0, 720.0, 719.0, 719.0, 717.0, 718.0, 719.0, 719.0, 720.0, 719.0, 718.0, 719.0, 719.0, 718.0, 718.0, 718.0, 718.0, 718.0, 718.0, 718.0, 718.0, 718.0, 719.0, 719.0, 720.0, 719.0, 719.0, 719.0, 718.0, 718.0, 719.0, 719.0, 719.0, 720.0, 716.0, 716.0, 718.0, 720.0, 718.0, 718.0, 721.0, 717.0, 719.0, 718.0, 720.0, 717.0, 718.0, 719.0, 720.0, 717.0, 717.0, 718.0, 717.0, 717.0, 718.0, 719.0, 717.0, 718.0, 720.0, 719.0, 717.0, 719.0, 720.0, 718.0, 717.0, 717.0, 718.0, 717.0, 718.0, 720.0, 718.0, 717.0, 717.0, 718.0, 719.0, 718.0, 719.0, 717.0, 718.0, 718.0, 719.0, 720.0, 716.0, 717.0, 719.0, 717.0, 718.0, 717.0, 718.0, 716.0, 717.0, 716.0, 718.0, 716.0, 718.0, 717.0, 717.0, 718.0, 717.0, 718.0, 716.0, 717.0, 716.0, 718.0, 719.0, 719.0, 718.0, 719.0, 717.0, 718.0, 716.0, 719.0, 717.0, 718.0, 716.0, 718.0, 716.0, 718.0, 717.0, 719.0, 718.0, 718.0, 719.0, 717.0, 718.0, 717.0, 719.0, 717.0, 717.0, 716.0, 718.0, 717.0, 719.0, 718.0, 718.0, 717.0, 718.0, 717.0, 716.0, 717.0, 720.0, 718.0, 718.0, 716.0, 717.0, 716.0, 717.0, 718.0, 719.0, 717.0, 719.0, 717.0, 718.0, 717.0, 718.0, 716.0, 716.0],
      "WindowWidth": [1599.0, 1597.0, 1604.0, 1598.0, 1596.0, 1595.0, 1601.0, 1602.0, 1597.0, 1600.0, 1600.0, 1605.0, 1598.0, 1603.0, 1598.0, 1604.0, 1597.0, 1597.0, 1597.0, 1601.0, 1607.0, 1605.0, 1605.0, 1599.0, 1600.0, 1604.0, 1600.0, 1605.0, 1602.0, 1599.0, 1605.0, 1604.0, 1603.0, 1602.0, 1605.0, 1603.0, 1611.0, 1601.0, 1603.0, 1603.0, 1598.0, 1606.0, 1600.0, 1605.0, 1606.0, 1604.0, 1608.0, 1601.0, 1600.0, 1603.0, 1604.0, 1601.0, 1601.0, 1608.0, 1604.0, 1597.0, 1601.0, 1603.0, 1602.0, 1600.0, 1604.0, 1607.0, 1601.0, 1603.0, 1605.0, 1600.0, 1606.0, 1599.0, 1603.0, 1598.0, 1603.0, 1601.0, 1603.0, 1597.0, 1598.0, 1597.0, 1604.0, 1594.0, 1592.0, 1606.0, 1599.0, 1602.0, 1599.0, 1599.0, 1592.0, 1597.0, 1600.0, 1601.0, 1603.0, 1600.0, 1594.0, 1598.0, 1597.0, 1595.0, 1593.0, 1594.0, 1595.0, 1594.0, 1595.0, 1594.0, 1594.0, 1596.0, 1600.0, 1597.0, 1603.0, 1599.0, 1599.0, 1600.0, 1596.0, 1597.0, 1598.0, 1597.0, 1598.0, 1603.0, 1589.0, 1588.0, 1595.0, 1602.0, 1594.0, 1594.0, 1604.0, 1592.0, 1597.0, 1593.0, 1602.0, 1591.0, 1595.0, 1597.0, 1602.0, 1591.0, 1593.0, 1597.0, 1593.0, 1592.0, 1597.0, 1599.0, 1592.0, 1595.0, 1601.0, 1597.0, 1592.0, 1597.0, 1601.0, 1596.0, 1592.0, 1591.0, 1593.0, 1593.0, 1597.0, 1602.0, 1595.0, 1592.0, 1592.0, 1594.0, 1598.0, 1596.0, 1597.0, 1592.0, 1598.0, 1597.0, 1597.0, 1601.0, 1588.0, 1593.0, 1600.0, 1593.0, 1595.0, 1591.0, 1597.0, 1586.0, 1593.0, 1590.0, 1597.0, 1588.0, 1592.0, 1592.0, 1592.0, 1595.0, 1591.0, 1597.0, 1589.0, 1593.0, 1589.0, 1593.0, 1598.0, 1598.0, 1595.0, 1598.0, 1590.0, 1595.0, 1590.0, 1599.0, 1590.0, 1596.0, 1588.0, 1597.0, 1589.0, 1594.0, 1591.0, 1598.0, 1594.0, 1594.0, 1600.0, 1591.0, 1596.0, 1589.0, 1597.0, 1590.0, 1594.0, 1588.0, 1595.0, 1591.0, 1597.0, 1591.0, 1595.0, 1589.0, 1594.0, 1589.0, 1589.0, 1592.0, 1599.0, 1596.0, 1595.0, 1588.0, 1591.0, 1588.0, 1593.0, 1594.0, 1597.0, 1591.0, 1598.0, 1593.0, 1595.0, 1591.0, 1596.0, 1589.0, 1589.0]
    },
    "slices": {}
  }
}