{
  "AcquisitionMatrixPE": 70,
  "AcquisitionNumber": 1,
  "AcquisitionTime": "11:45:15.110000",
  "BandwidthPerPixelPhaseEncode": 38.873,
  "BaseResolution": 70,
  "BodyPartExamined": "HEAD",
  "ConsistencyInfo": "N4_VE11B_LATEST_20150530",
  "ConversionSoftware": "dcm2niix",
  "ConversionSoftwareVersion": "v1.0.20190410  GCC6.3.0",
  "DerivedVendorReportedEchoSpacing": 0.000489996,
  "DeviceSerialNumber": "66088",
  "DwellTime": 2.9e-06,
  "EchoTime": 0.03,
  "EchoTrainLength": 53,
  "EffectiveEchoSpacing": 0.000367497,
  "FlipAngle": 90,
  "ImageOrientationPatientDICOM": [0.999685, -0.000377934, 0.0250804, 0.00872414, 0.942699, -0.333532],
  "ImageType": [
    "ORIGINAL",
    "PRIMARY",
    "M",
    "ND",
    "NORM",
    "MOSAIC"
],
  "ImagingFrequency": 123.191,
  "InPlanePhaseEncodingDirectionDICOM": "COL",
  "InstitutionAddress": "Street_StreetNo_City_District_IR_ZIP",
  "InstitutionName": "Hospital",
  "InstitutionalDepartmentName": "Department",
  "MRAcquisitionType": "2D",
  "MagneticFieldStrength": 3,
  "Manufacturer": "Siemens",
  "ManufacturersModelName": "Prisma",
  "Modality": "MR",
  "ParallelReductionFactorInPlane": 2,
  "PartialFourier": 1,
  "PatientPosition": "HFS",
  "PercentPhaseFOV": 100,
  "PhaseEncodingDirection": "j-",
  "PhaseEncodingSteps": 105,
  "PhaseOversampling": 0.5,
  "PhaseResolution": 1,
  "PixelBandwidth": 2465,
  "ProcedureStepDescription": "SEARCH_KOHANPOUR_EILBEYGI",
  "ProtocolName": "ep2d_p2_Task_3.5_measurment:237",
  "PulseSequenceDetails": "%SiemensSeq%_ep2d_pace",
  "ReceiveCoilActiveElements": "HC1-7;NC1",
  "ReceiveCoilName": "HeadNeck_64",
  "ReconMatrixPE": 70,
  "RefLinesPE": 24,
  "RepetitionTime": 2,
  "SAR": 0.0744237,
  "ScanOptions": "FS",
  "ScanningSequence": "EP",
  "SequenceName": "_epfid2d1_70",
  "SequenceVariant": "SK_OSP",
  "SeriesDescription": "ep2d_p2_Task_3.5_measurment:237",
  "SeriesNumber": 8,
  "ShimSetting": [2511, -4337, -3237, 208, -146, 311, -146, 130],
  "SliceThickness": 3.5,
  "SliceTiming": [0.99, 0, 1.0475, 0.0575, 1.1075, 0.1175, 1.165, 0.175, 1.2225, 0.2325, 1.28, 0.2925, 1.34, 0.35, 1.3975, 0.4075, 1.455, 0.465, 1.515, 0.525, 1.5725, 0.5825, 1.63, 0.64, 1.69, 0.7, 1.7475, 0.7575, 1.805, 0.815, 1.8625, 0.8725, 1.9225, 0.9325],
  "SoftwareVersions": "syngo_MR_E11",
  "SpacingBetweenSlices": 3.85,
  "StationName": "AWP66088",
  "TaskName": "categorySelectivity",
  "TotalReadoutTime": 0.0253573,
  "TxRefAmp": 241.204,
  "dcmmeta_affine": [
    [-3.5417425632476807, 0.030908390879631042, 0.09054140001535416, 121.46082305908203],
    [0.0013389670057222247, 3.33984637260437, -1.2845348119735718, -93.73316955566406],
    [0.08885643631219864, 1.1816545724868774, 3.6282601356506348, -44.00533676147461],
    [0.0, 0.0, 0.0, 1.0]
],
  "dcmmeta_reorient_transform": [
    [0.0, -1.0, 0.0, 69.0],
    [1.0, 0.0, 0.0, 0.0],
    [0.0, 0.0, 1.0, 0.0],
    [0.0, 0.0, 0.0, 1.0]
],
  "dcmmeta_shape": [70, 70, 34, 237],
  "dcmmeta_slice_dim": 2,
  "dcmmeta_version": 0.6,
  "global": {
    "const": {
      "AcquisitionMatrix": [70, 0, 0, 70],
      "AngioFlag": "N",
      "BitsAllocated": 16,
      "BitsStored": 12,
      "BodyPartExamined": "HEAD",
      "Columns": 420,
      "EchoNumbers": 1,
      "EchoTime": 30.0,
      "EchoTrainLength": 53,
      "FlipAngle": 90.0,
      "HighBit": 11,
      "ImageOrientationPatient": [0.99968536470255, -0.0003779342299, 0.02508044587437, 0.00872414271927, 0.94269857385881, -0.3335315400054],
      "ImagePositionPatient": [-748.80739879159, -720.9550343289, 228.76851192569],
      "ImageType": [
        "ORIGINAL",
        "PRIMARY",
        "M",
        "ND",
        "NORM",
        "MOSAIC"
],
      "ImagedNucleus": "1H",
      "ImagingFrequency": 123.191113,
      "InPlanePhaseEncodingDirection": "COL",
      "MRAcquisitionType": "2D",
      "MagneticFieldStrength": 3.0,
      "Manufacturer": "SIEMENS",
      "ManufacturerModelName": "Prisma",
      "Modality": "MR",
      "NumberOfAverages": 1.0,
      "NumberOfPhaseEncodingSteps": 105,
      "PercentPhaseFieldOfView": 100.0,
      "PercentSampling": 100.0,
      "PerformedProcedureStepStartTime": "110914.857000",
      "PhotometricInterpretation": "MONOCHROME2",
      "PixelBandwidth": 2465.0,
      "PixelRepresentation": 0,
      "PixelSpacing": [3.542857170105, 3.542857170105],
      "ProtocolName": "ep2d_p2_Task_3.5_measurment:237",
      "RepetitionTime": 2000.0,
      "Rows": 420,
      "SAR": 0.07442370780456,
      "SamplesPerPixel": 1,
      "ScanOptions": "FS",
      "ScanningSequence": "EP",
      "SequenceName": "*epfid2d1_70",
      "SequenceVariant": [
        "SK",
        "OSP"
],
      "SeriesDescription": "ep2d_p2_Task_3.5_measurment:237",
      "SeriesNumber": 8,
      "SeriesTime": "114608.132000",
      "SliceLocation": -7.340795094479,
      "SliceThickness": 3.5,
      "SmallestImagePixelValue": 0,
      "SoftwareVersions": "syngo MR E11",
      "SpacingBetweenSlices": 3.849999906827,
      "SpecificCharacterSet": "ISO_IR 100",
      "StudyID": "1",
      "StudyTime": "110914.803000",
      "TransmitCoilName": "Body",
      "VariableFlipAngleFlag": "N",
      "WindowCenterWidthExplanation": "Algo1",
      "dBdt": 0.0},
    "slices": {}
  },
  "time": {
    "samples": {
      "AcquisitionNumber": [1, 2, 3, 4, 5, 6, 7, 8, 9, 10, 11, 12, 13, 14, 15, 16, 17, 18, 19, 20, 21, 22, 23, 24, 25, 26, 27, 28, 29, 30, 31, 32, 33, 34, 35, 36, 37, 38, 39, 40, 41, 42, 43, 44, 45, 46, 47, 48, 49, 50, 51, 52, 53, 54, 55, 56, 57, 58, 59, 60, 61, 62, 63, 64, 65, 66, 67, 68, 69, 70, 71, 72, 73, 74, 75, 76, 77, 78, 79, 80, 81, 82, 83, 84, 85, 86, 87, 88, 89, 90, 91, 92, 93, 94, 95, 96, 97, 98, 99, 100, 101, 102, 103, 104, 105, 106, 107, 108, 109, 110, 111, 112, 113, 114, 115, 116, 117, 118, 119, 120, 121, 122, 123, 124, 125, 126, 127, 128, 129, 130, 131, 132, 133, 134, 135, 136, 137, 138, 139, 140, 141, 142, 143, 144, 145, 146, 147, 148, 149, 150, 151, 152, 153, 154, 155, 156, 157, 158, 159, 160, 161, 162, 163, 164, 165, 166, 167, 168, 169, 170, 171, 172, 173, 174, 175, 176, 177, 178, 179, 180, 181, 182, 183, 184, 185, 186, 187, 188, 189, 190, 191, 192, 193, 194, 195, 196, 197, 198, 199, 200, 201, 202, 203, 204, 205, 206, 207, 208, 209, 210, 211, 212, 213, 214, 215, 216, 217, 218, 219, 220, 221, 222, 223, 224, 225, 226, 227, 228, 229, 230, 231, 232, 233, 234, 235, 236, 237],
      "AcquisitionTime": ["114515.110000", "114517.110000", "114519.110000", "114521.110000", "114523.110000", "114525.110000", "114527.110000", "114529.110000", "114531.110000", "114533.110000", "114535.110000", "114537.110000", "114539.110000", "114541.110000", "114543.110000", "114545.110000", "114547.110000", "114549.110000", "114551.110000", "114553.110000", "114555.110000", "114557.110000", "114559.110000", "114601.110000", "114603.110000", "114605.110000", "114607.110000", "114609.110000", "114611.110000", "114613.110000", "114615.110000", "114617.110000", "114619.110000", "114621.110000", "114623.110000", "114625.110000", "114627.110000", "114629.110000", "114631.110000", "114633.110000", "114635.110000", "114637.110000", "114639.110000", "114641.110000", "114643.110000", "114645.110000", "114647.110000", "114649.110000", "114651.110000", "114653.110000", "114655.110000", "114657.110000", "114659.110000", "114701.110000", "114703.110000", "114705.110000", "114707.110000", "114709.110000", "114711.110000", "114713.110000", "114715.110000", "114717.110000", "114719.110000", "114721.110000", "114723.110000", "114725.110000", "114727.110000", "114729.110000", "114731.110000", "114733.110000", "114735.110000", "114737.110000", "114739.110000", "114741.110000", "114743.110000", "114745.110000", "114747.110000", "114749.110000", "114751.110000", "114753.110000", "114755.110000", "114757.110000", "114759.110000", "114801.110000", "114803.110000", "114805.110000", "114807.110000", "114809.110000", "114811.110000", "114813.110000", "114815.110000", "114817.110000", "114819.110000", "114821.110000", "114823.110000", "114825.110000", "114827.110000", "114829.110000", "114831.110000", "114833.110000", "114835.110000", "114837.110000", "114839.110000", "114841.110000", "114843.110000", "114845.110000", "114847.110000", "114849.110000", "114851.110000", "114853.110000", "114855.110000", "114857.110000", "114859.110000", "114901.110000", "114903.110000", "114905.110000", "114907.110000", "114909.110000", "114911.110000", "114913.110000", "114915.110000", "114917.110000", "114919.110000", "114921.110000", "114923.110000", "114925.110000", "114927.110000", "114929.110000", "114931.110000", "114933.110000", "114935.110000", "114937.110000", "114939.110000", "114941.110000", "114943.110000", "114945.110000", "114947.110000", "114949.110000", "114951.110000", "114953.110000", "114955.110000", "114957.110000", "114959.110000", "115001.110000", "115003.110000", "115005.110000", "115007.110000", "115009.110000", "115011.110000", "115013.110000", "115015.110000", "115017.110000", "115019.110000", "115021.110000", "115023.110000", "115025.110000", "115027.110000", "115029.110000", "115031.110000", "115033.110000", "115035.110000", "115037.110000", "115039.110000", "115041.110000", "115043.110000", "115045.110000", "115047.110000", "115049.110000", "115051.110000", "115053.110000", "115055.110000", "115057.110000", "115059.110000", "115101.110000", "115103.110000", "115105.110000", "115107.110000", "115109.110000", "115111.110000", "115113.110000", "115115.110000", "115117.110000", "115119.110000", "115121.110000", "115123.110000", "115125.110000", "115127.110000", "115129.110000", "115131.110000", "115133.110000", "115135.110000", "115137.110000", "115139.110000", "115141.110000", "115143.110000", "115145.110000", "115147.110000", "115149.110000", "115151.110000", "115153.110000", "115155.110000", "115157.110000", "115159.110000", "115201.110000", "115203.110000", "115205.110000", "115207.110000", "115209.110000", "115211.110000", "115213.110000", "115215.110000", "115217.110000", "115219.110000", "115221.110000", "115223.110000", "115225.110000", "115227.110000", "115229.110000", "115231.110000", "115233.110000", "115235.110000", "115237.110000", "115239.110000", "115241.110000", "115243.110000", "115245.110000", "115247.110000", "115249.110000", "115251.110000", "115253.110000", "115255.110000", "115257.110000", "115259.110000", "115301.110000", "115303.110000", "115305.110000", "115307.110000"],
      "ContentTime": ["114608.137000", "114608.141000", "114608.144000", "114608.147000", "114608.150000", "114608.153000", "114608.156000", "114608.159000", "114608.162000", "114608.166000", "114608.169000", "114608.172000", "114608.175000", "114608.178000", "114608.181000", "114608.184000", "114608.188000", "114608.191000", "114608.194000", "114608.197000", "114608.200000", "114608.203000", "114608.206000", "114608.209000", "114608.221000", "114608.230000", "114648.130000", "114648.135000", "114648.138000", "114648.141000", "114648.144000", "114648.147000", "114648.150000", "114648.153000", "114648.156000", "114648.159000", "114648.162000", "114648.171000", "114648.174000", "114648.177000", "114648.180000", "114648.183000", "114648.186000", "114648.189000", "114648.193000", "114648.196000", "114728.131000", "114728.134000", "114728.136000", "114728.139000", "114728.141000", "114728.144000", "114728.146000", "114728.148000", "114728.151000", "114728.153000", "114728.156000", "114728.158000", "114728.161000", "114728.163000", "114728.165000", "114728.168000", "114728.170000", "114728.173000", "114728.175000", "114728.177000", "114808.131000", "114808.134000", "114808.137000", "114808.140000", "114808.144000", "114808.147000", "114808.150000", "114808.153000", "114808.156000", "114808.159000", "114808.162000", "114808.165000", "114808.169000", "114808.172000", "114808.175000", "114808.178000", "114808.181000", "114808.184000", "114808.187000", "114808.190000", "114848.131000", "114848.134000", "114848.137000", "114848.140000", "114848.143000", "114848.147000", "114848.150000", "114848.153000", "114848.156000", "114848.159000", "114848.162000", "114848.165000", "114848.169000", "114848.172000", "114848.175000", "114848.178000", "114848.181000", "114848.184000", "114848.187000", "114848.190000", "114928.131000", "114928.134000", "114928.136000", "114928.138000", "114928.141000", "114928.143000", "114928.146000", "114928.148000", "114928.150000", "114928.153000", "114928.155000", "114928.158000", "114928.160000", "114928.162000", "114928.165000", "114928.167000", "114928.169000", "114928.172000", "114928.174000", "114928.177000", "115008.131000", "115008.134000", "115008.137000", "115008.140000", "115008.144000", "115008.147000", "115008.150000", "115008.153000", "115008.156000", "115008.159000", "115008.162000", "115008.165000", "115008.169000", "115008.172000", "115008.175000", "115008.178000", "115008.181000", "115008.184000", "115008.187000", "115008.190000", "115048.131000", "115048.134000", "115048.137000", "115048.140000", "115048.143000", "115048.146000", "115048.150000", "115048.153000", "115048.156000", "115048.159000", "115048.162000", "115048.175000", "115048.178000", "115048.181000", "115048.184000", "115048.187000", "115048.190000", "115048.194000", "115048.197000", "115048.200000", "115128.131000", "115128.134000", "115128.137000", "115128.139000", "115128.141000", "115128.144000", "115128.146000", "115128.149000", "115128.151000", "115128.154000", "115128.156000", "115128.158000", "115128.161000", "115128.163000", "115128.166000", "115128.168000", "115128.170000", "115128.173000", "115128.175000", "115128.177000", "115208.131000", "115208.134000", "115208.137000", "115208.140000", "115208.144000", "115208.147000", "115208.150000", "115208.153000", "115208.156000", "115208.159000", "115208.162000", "115208.165000", "115208.180000", "115208.183000", "115208.187000", "115208.190000", "115208.193000", "115208.196000", "115208.199000", "115208.202000", "115248.131000", "115248.134000", "115248.137000", "115248.141000", "115248.144000", "115248.147000", "115248.150000", "115248.153000", "115248.156000", "115248.159000", "115248.162000", "115248.165000", "115248.169000", "115248.172000", "115248.175000", "115248.178000", "115248.181000", "115248.184000", "115248.187000", "115248.191000", "115308.801000", "115308.808000", "115308.811000", "115308.815000", "115308.820000", "115308.823000", "115308.828000", "115308.833000", "115308.838000", "115308.843000", "115308.847000"],
      "InstanceCreationTime": ["114608.137000", "114608.141000", "114608.144000", "114608.147000", "114608.150000", "114608.153000", "114608.156000", "114608.159000", "114608.162000", "114608.166000", "114608.169000", "114608.172000", "114608.175000", "114608.178000", "114608.181000", "114608.184000", "114608.188000", "114608.191000", "114608.194000", "114608.197000", "114608.200000", "114608.203000", "114608.206000", "114608.209000", "114608.221000", "114608.230000", "114648.130000", "114648.135000", "114648.138000", "114648.141000", "114648.144000", "114648.147000", "114648.150000", "114648.153000", "114648.156000", "114648.159000", "114648.162000", "114648.171000", "114648.174000", "114648.177000", "114648.180000", "114648.183000", "114648.186000", "114648.189000", "114648.193000", "114648.196000", "114728.131000", "114728.134000", "114728.136000", "114728.139000", "114728.141000", "114728.144000", "114728.146000", "114728.148000", "114728.151000", "114728.153000", "114728.156000", "114728.158000", "114728.161000", "114728.163000", "114728.165000", "114728.168000", "114728.170000", "114728.173000", "114728.175000", "114728.177000", "114808.131000", "114808.134000", "114808.137000", "114808.140000", "114808.144000", "114808.147000", "114808.150000", "114808.153000", "114808.156000", "114808.159000", "114808.162000", "114808.165000", "114808.169000", "114808.172000", "114808.175000", "114808.178000", "114808.181000", "114808.184000", "114808.187000", "114808.190000", "114848.131000", "114848.134000", "114848.137000", "114848.140000", "114848.143000", "114848.147000", "114848.150000", "114848.153000", "114848.156000", "114848.159000", "114848.162000", "114848.165000", "114848.169000", "114848.172000", "114848.175000", "114848.178000", "114848.181000", "114848.184000", "114848.187000", "114848.190000", "114928.131000", "114928.134000", "114928.136000", "114928.138000", "114928.141000", "114928.143000", "114928.146000", "114928.148000", "114928.150000", "114928.153000", "114928.155000", "114928.158000", "114928.160000", "114928.162000", "114928.165000", "114928.167000", "114928.169000", "114928.172000", "114928.174000", "114928.177000", "115008.131000", "115008.134000", "115008.137000", "115008.140000", "115008.144000", "115008.147000", "115008.150000", "115008.153000", "115008.156000", "115008.159000", "115008.162000", "115008.165000", "115008.169000", "115008.172000", "115008.175000", "115008.178000", "115008.181000", "115008.184000", "115008.187000", "115008.190000", "115048.131000", "115048.134000", "115048.137000", "115048.140000", "115048.143000", "115048.146000", "115048.150000", "115048.153000", "115048.156000", "115048.159000", "115048.162000", "115048.175000", "115048.178000", "115048.181000", "115048.184000", "115048.187000", "115048.190000", "115048.194000", "115048.197000", "115048.200000", "115128.131000", "115128.134000", "115128.137000", "115128.139000", "115128.141000", "115128.144000", "115128.146000", "115128.149000", "115128.151000", "115128.154000", "115128.156000", "115128.158000", "115128.161000", "115128.163000", "115128.166000", "115128.168000", "115128.170000", "115128.173000", "115128.175000", "115128.177000", "115208.131000", "115208.134000", "115208.137000", "115208.140000", "115208.144000", "115208.147000", "115208.150000", "115208.153000", "115208.156000", "115208.159000", "115208.162000", "115208.165000", "115208.180000", "115208.183000", "115208.187000", "115208.190000", "115208.193000", "115208.196000", "115208.199000", "115208.202000", "115248.131000", "115248.134000", "115248.137000", "115248.141000", "115248.144000", "115248.147000", "115248.150000", "115248.153000", "115248.156000", "115248.159000", "115248.162000", "115248.165000", "115248.169000", "115248.172000", "115248.175000", "115248.178000", "115248.181000", "115248.184000", "115248.187000", "115248.191000", "115308.801000", "115308.808000", "115308.811000", "115308.815000", "115308.820000", "115308.823000", "115308.828000", "115308.833000", "115308.838000", "115308.843000", "115308.847000"],
      "InstanceNumber": [1, 2, 3, 4, 5, 6, 7, 8, 9, 10, 11, 12, 13, 14, 15, 16, 17, 18, 19, 20, 21, 22, 23, 24, 25, 26, 27, 28, 29, 30, 31, 32, 33, 34, 35, 36, 37, 38, 39, 40, 41, 42, 43, 44, 45, 46, 47, 48, 49, 50, 51, 52, 53, 54, 55, 56, 57, 58, 59, 60, 61, 62, 63, 64, 65, 66, 67, 68, 69, 70, 71, 72, 73, 74, 75, 76, 77, 78, 79, 80, 81, 82, 83, 84, 85, 86, 87, 88, 89, 90, 91, 92, 93, 94, 95, 96, 97, 98, 99, 100, 101, 102, 103, 104, 105, 106, 107, 108, 109, 110, 111, 112, 113, 114, 115, 116, 117, 118, 119, 120, 121, 122, 123, 124, 125, 126, 127, 128, 129, 130, 131, 132, 133, 134, 135, 136, 137, 138, 139, 140, 141, 142, 143, 144, 145, 146, 147, 148, 149, 150, 151, 152, 153, 154, 155, 156, 157, 158, 159, 160, 161, 162, 163, 164, 165, 166, 167, 168, 169, 170, 171, 172, 173, 174, 175, 176, 177, 178, 179, 180, 181, 182, 183, 184, 185, 186, 187, 188, 189, 190, 191, 192, 193, 194, 195, 196, 197, 198, 199, 200, 201, 202, 203, 204, 205, 206, 207, 208, 209, 210, 211, 212, 213, 214, 215, 216, 217, 218, 219, 220, 221, 222, 223, 224, 225, 226, 227, 228, 229, 230, 231, 232, 233, 234, 235, 236, 237],
      "LargestImagePixelValue": [2497, 2012, 1983, 2637, 2001, 2013, 1940, 1982, 2055, 2548, 2067, 1999, 2219, 2599, 2030, 1989, 2049, 1976, 1985, 2476, 2029, 1954, 2473, 2666, 1994, 1963, 2044, 2035, 1975, 1965, 1997, 2069, 2536, 2434, 1980, 1965, 2353, 2388, 2075, 1967, 1976, 1988, 2359, 2023, 2007, 2475, 1978, 1984, 1979, 2213, 2279, 1975, 2024, 1990, 2036, 1999, 2332, 2007, 2006, 1990, 2322, 2028, 2399, 2042, 1995, 2174, 2499, 2010, 2135, 1947, 1988, 2074, 2396, 2033, 1994, 1981, 2010, 2160, 2313, 2000, 2008, 1978, 1969, 2107, 2336, 2006, 2021, 2058, 1966, 1994, 1996, 2012, 1996, 2053, 2012, 2023, 2327, 2147, 1992, 1948, 1986, 2001, 2115, 2021, 1997, 2006, 1989, 1987, 1974, 1990, 2365, 2523, 2020, 1991, 1954, 1956, 2536, 2282, 1996, 1983, 1986, 2017, 2031, 1996, 2008, 2219, 1978, 2010, 2007, 1984, 2013, 2041, 2019, 2072, 2017, 2013, 2031, 2009, 2008, 2009, 2213, 2603, 2001, 1986, 1988, 2020, 2001, 2024, 2145, 2003, 1991, 2569, 2351, 1997, 1992, 1975, 2393, 2205, 2012, 2012, 2028, 2010, 2017, 2010, 2013, 2250, 2051, 2016, 2006, 2314, 1996, 2010, 2388, 1996, 1988, 1998, 2145, 2057, 1978, 1997, 2023, 2127, 2092, 2024, 2002, 2013, 2104, 2036, 2001, 2010, 2002, 2049, 2040, 2048, 2029, 1999, 2053, 2071, 2052, 2171, 2007, 2193, 1998, 2010, 2115, 1991, 2003, 2048, 2041, 2024, 2025, 2018, 2016, 2043, 2428, 2023, 1983, 2093, 2048, 2041, 2080, 2180, 2029, 2039, 2009, 1993, 2010, 2205, 2084, 2070, 2022, 2093, 2069, 2100, 2396, 2269, 2069],
      "WindowCenter": [754.0, 753.0, 753.0, 753.0, 751.0, 752.0, 752.0, 753.0, 752.0, 752.0, 752.0, 752.0, 751.0, 751.0, 751.0, 751.0, 752.0, 751.0, 750.0, 751.0, 752.0, 751.0, 752.0, 751.0, 751.0, 750.0, 750.0, 751.0, 752.0, 752.0, 752.0, 754.0, 754.0, 753.0, 752.0, 752.0, 752.0, 751.0, 752.0, 752.0, 751.0, 752.0, 752.0, 751.0, 751.0, 751.0, 751.0, 752.0, 752.0, 751.0, 752.0, 751.0, 751.0, 751.0, 751.0, 750.0, 751.0, 751.0, 751.0, 752.0, 751.0, 752.0, 752.0, 751.0, 751.0, 753.0, 752.0, 751.0, 751.0, 751.0, 752.0, 752.0, 751.0, 750.0, 751.0, 752.0, 751.0, 751.0, 751.0, 751.0, 751.0, 752.0, 751.0, 751.0, 750.0, 750.0, 750.0, 751.0, 752.0, 751.0, 751.0, 751.0, 752.0, 752.0, 751.0, 752.0, 751.0, 751.0, 751.0, 751.0, 751.0, 751.0, 751.0, 750.0, 751.0, 751.0, 751.0, 751.0, 750.0, 751.0, 751.0, 751.0, 751.0, 752.0, 751.0, 752.0, 752.0, 751.0, 751.0, 751.0, 751.0, 751.0, 751.0, 750.0, 751.0, 751.0, 750.0, 751.0, 751.0, 751.0, 750.0, 751.0, 752.0, 752.0, 751.0, 750.0, 751.0, 751.0, 751.0, 751.0, 751.0, 751.0, 750.0, 750.0, 751.0, 751.0, 752.0, 751.0, 751.0, 751.0, 751.0, 752.0, 752.0, 751.0, 751.0, 751.0, 751.0, 751.0, 750.0, 751.0, 751.0, 751.0, 751.0, 751.0, 751.0, 752.0, 751.0, 751.0, 752.0, 752.0, 751.0, 752.0, 752.0, 751.0, 752.0, 752.0, 751.0, 751.0, 751.0, 752.0, 751.0, 751.0, 751.0, 751.0, 751.0, 751.0, 751.0, 751.0, 750.0, 750.0, 751.0, 750.0, 751.0, 751.0, 751.0, 752.0, 752.0, 752.0, 752.0, 751.0, 751.0, 751.0, 751.0, 751.0, 751.0, 750.0, 751.0, 751.0, 751.0, 751.0, 751.0, 751.0, 752.0, 751.0, 751.0, 751.0, 751.0, 752.0, 751.0, 751.0, 751.0, 751.0, 750.0, 751.0, 750.0, 751.0, 751.0, 751.0, 751.0, 751.0, 751.0, 751.0, 752.0, 752.0, 752.0, 751.0, 751.0],
      "WindowWidth": [1714.0, 1709.0, 1709.0, 1712.0, 1702.0, 1705.0, 1704.0, 1707.0, 1706.0, 1706.0, 1705.0, 1703.0, 1704.0, 1705.0, 1700.0, 1702.0, 1706.0, 1702.0, 1699.0, 1703.0, 1704.0, 1702.0, 1705.0, 1705.0, 1701.0, 1699.0, 1699.0, 1703.0, 1706.0, 1705.0, 1705.0, 1712.0, 1713.0, 1709.0, 1703.0, 1703.0, 1705.0, 1704.0, 1704.0, 1704.0, 1703.0, 1704.0, 1706.0, 1702.0, 1700.0, 1705.0, 1700.0, 1704.0, 1705.0, 1703.0, 1706.0, 1703.0, 1702.0, 1701.0, 1700.0, 1699.0, 1703.0, 1703.0, 1703.0, 1703.0, 1704.0, 1705.0, 1708.0, 1702.0, 1703.0, 1708.0, 1706.0, 1700.0, 1701.0, 1703.0, 1707.0, 1705.0, 1704.0, 1699.0, 1702.0, 1704.0, 1702.0, 1701.0, 1701.0, 1701.0, 1703.0, 1703.0, 1701.0, 1700.0, 1700.0, 1698.0, 1700.0, 1701.0, 1705.0, 1702.0, 1700.0, 1703.0, 1703.0, 1702.0, 1701.0, 1705.0, 1704.0, 1701.0, 1702.0, 1701.0, 1700.0, 1701.0, 1701.0, 1698.0, 1700.0, 1702.0, 1702.0, 1700.0, 1699.0, 1701.0, 1704.0, 1704.0, 1703.0, 1703.0, 1702.0, 1703.0, 1705.0, 1702.0, 1701.0, 1702.0, 1701.0, 1700.0, 1699.0, 1699.0, 1700.0, 1703.0, 1699.0, 1701.0, 1701.0, 1700.0, 1698.0, 1702.0, 1706.0, 1704.0, 1700.0, 1698.0, 1702.0, 1702.0, 1701.0, 1700.0, 1702.0, 1703.0, 1698.0, 1698.0, 1701.0, 1702.0, 1704.0, 1702.0, 1701.0, 1701.0, 1702.0, 1706.0, 1705.0, 1702.0, 1702.0, 1701.0, 1703.0, 1701.0, 1698.0, 1699.0, 1703.0, 1702.0, 1701.0, 1701.0, 1702.0, 1705.0, 1702.0, 1701.0, 1704.0, 1706.0, 1702.0, 1704.0, 1705.0, 1702.0, 1704.0, 1704.0, 1703.0, 1701.0, 1700.0, 1703.0, 1703.0, 1702.0, 1699.0, 1702.0, 1701.0, 1702.0, 1701.0, 1701.0, 1698.0, 1698.0, 1699.0, 1698.0, 1701.0, 1700.0, 1703.0, 1705.0, 1704.0, 1703.0, 1703.0, 1703.0, 1699.0, 1701.0, 1701.0, 1701.0, 1700.0, 1699.0, 1700.0, 1700.0, 1699.0, 1699.0, 1702.0, 1702.0, 1703.0, 1703.0, 1703.0, 1700.0, 1702.0, 1702.0, 1701.0, 1702.0, 1702.0, 1700.0, 1698.0, 1701.0, 1698.0, 1700.0, 1701.0, 1703.0, 1701.0, 1702.0, 1702.0, 1699.0, 1704.0, 1706.0, 1706.0, 1702.0, 1700.0]
    },
    "slices": {}
  }
}