{
  "AcquisitionMatrixPE": 70,
  "AcquisitionNumber": 1,
  "AcquisitionTime": "11:36:50.202500",
  "BandwidthPerPixelPhaseEncode": 38.873,
  "BaseResolution": 70,
  "BodyPartExamined": "HEAD",
  "ConsistencyInfo": "N4_VE11B_LATEST_20150530",
  "ConversionSoftware": "dcm2niix",
  "ConversionSoftwareVersion": "v1.0.20190410  GCC6.3.0",
  "DerivedVendorReportedEchoSpacing": 0.000489996,
  "DeviceSerialNumber": "66088",
  "DwellTime": 2.9e-06,
  "EchoTime": 0.03,
  "EchoTrainLength": 53,
  "EffectiveEchoSpacing": 0.000367497,
  "FlipAngle": 90,
  "ImageOrientationPatientDICOM": [0.999685, -0.000377934, 0.0250804, 0.00872414, 0.942699, -0.333532],
  "ImageType": [
    "ORIGINAL",
    "PRIMARY",
    "M",
    "ND",
    "NORM",
    "MOSAIC"
],
  "ImagingFrequency": 123.191,
  "InPlanePhaseEncodingDirectionDICOM": "COL",
  "InstitutionAddress": "Street_StreetNo_City_District_IR_ZIP",
  "InstitutionName": "Hospital",
  "InstitutionalDepartmentName": "Department",
  "MRAcquisitionType": "2D",
  "MagneticFieldStrength": 3,
  "Manufacturer": "Siemens",
  "ManufacturersModelName": "Prisma",
  "Modality": "MR",
  "ParallelReductionFactorInPlane": 2,
  "PartialFourier": 1,
  "PatientPosition": "HFS",
  "PercentPhaseFOV": 100,
  "PhaseEncodingDirection": "j-",
  "PhaseEncodingSteps": 105,
  "PhaseOversampling": 0.5,
  "PhaseResolution": 1,
  "PixelBandwidth": 2465,
  "ProcedureStepDescription": "SEARCH_KOHANPOUR_EILBEYGI",
  "ProtocolName": "ep2d_p2_Task_3.5_measurment:237",
  "PulseSequenceDetails": "%SiemensSeq%_ep2d_pace",
  "ReceiveCoilActiveElements": "HC1-7;NC1",
  "ReceiveCoilName": "HeadNeck_64",
  "ReconMatrixPE": 70,
  "RefLinesPE": 24,
  "RepetitionTime": 2,
  "SAR": 0.0744237,
  "ScanOptions": "FS",
  "ScanningSequence": "EP",
  "SequenceName": "_epfid2d1_70",
  "SequenceVariant": "SK_OSP",
  "SeriesDescription": "ep2d_p2_Task_3.5_measurment:237",
  "SeriesNumber": 7,
  "ShimSetting": [2511, -4337, -3237, 208, -146, 311, -146, 130],
  "SliceThickness": 3.5,
  "SliceTiming": [0.99, 0, 1.0475, 0.0575, 1.1075, 0.1175, 1.165, 0.175, 1.2225, 0.2325, 1.28, 0.29, 1.34, 0.35, 1.3975, 0.4075, 1.455, 0.465, 1.515, 0.525, 1.5725, 0.5825, 1.63, 0.64, 1.6875, 0.7, 1.7475, 0.7575, 1.805, 0.815, 1.8625, 0.8725, 1.9225, 0.9325],
  "SoftwareVersions": "syngo_MR_E11",
  "SpacingBetweenSlices": 3.85,
  "StationName": "AWP66088",
  "TaskName": "categorySelectivity",
  "TotalReadoutTime": 0.0253573,
  "TxRefAmp": 241.204,
  "dcmmeta_affine": [
    [-3.5417425632476807, 0.030908390879631042, 0.09054140001535416, 121.46082305908203],
    [0.0013389670057222247, 3.33984637260437, -1.2845348119735718, -93.73316955566406],
    [0.08885643631219864, 1.1816545724868774, 3.6282601356506348, -44.00533676147461],
    [0.0, 0.0, 0.0, 1.0]
],
  "dcmmeta_reorient_transform": [
    [0.0, -1.0, 0.0, 69.0],
    [1.0, 0.0, 0.0, 0.0],
    [0.0, 0.0, 1.0, 0.0],
    [0.0, 0.0, 0.0, 1.0]
],
  "dcmmeta_shape": [70, 70, 34, 237],
  "dcmmeta_slice_dim": 2,
  "dcmmeta_version": 0.6,
  "global": {
    "const": {
      "AcquisitionMatrix": [70, 0, 0, 70],
      "AngioFlag": "N",
      "BitsAllocated": 16,
      "BitsStored": 12,
      "BodyPartExamined": "HEAD",
      "Columns": 420,
      "EchoNumbers": 1,
      "EchoTime": 30.0,
      "EchoTrainLength": 53,
      "FlipAngle": 90.0,
      "HighBit": 11,
      "ImageOrientationPatient": [0.99968536470255, -0.0003779342299, 0.02508044587437, 0.00872414271927, 0.94269857385881, -0.3335315400054],
      "ImagePositionPatient": [-748.80739879159, -720.9550343289, 228.76851192569],
      "ImageType": [
        "ORIGINAL",
        "PRIMARY",
        "M",
        "ND",
        "NORM",
        "MOSAIC"
],
      "ImagedNucleus": "1H",
      "ImagingFrequency": 123.19111,
      "InPlanePhaseEncodingDirection": "COL",
      "MRAcquisitionType": "2D",
      "MagneticFieldStrength": 3.0,
      "Manufacturer": "SIEMENS",
      "ManufacturerModelName": "Prisma",
      "Modality": "MR",
      "NumberOfAverages": 1.0,
      "NumberOfPhaseEncodingSteps": 105,
      "PercentPhaseFieldOfView": 100.0,
      "PercentSampling": 100.0,
      "PerformedProcedureStepStartTime": "110914.857000",
      "PhotometricInterpretation": "MONOCHROME2",
      "PixelBandwidth": 2465.0,
      "PixelRepresentation": 0,
      "PixelSpacing": [3.542857170105, 3.542857170105],
      "ProtocolName": "ep2d_p2_Task_3.5_measurment:237",
      "RepetitionTime": 2000.0,
      "Rows": 420,
      "SAR": 0.07442370780456,
      "SamplesPerPixel": 1,
      "ScanOptions": "FS",
      "ScanningSequence": "EP",
      "SequenceName": "*epfid2d1_70",
      "SequenceVariant": [
        "SK",
        "OSP"
],
      "SeriesDescription": "ep2d_p2_Task_3.5_measurment:237",
      "SeriesNumber": 7,
      "SeriesTime": "113736.527000",
      "SliceLocation": -7.340795094479,
      "SliceThickness": 3.5,
      "SmallestImagePixelValue": 0,
      "SoftwareVersions": "syngo MR E11",
      "SpacingBetweenSlices": 3.849999906827,
      "SpecificCharacterSet": "ISO_IR 100",
      "StudyID": "1",
      "StudyTime": "110914.803000",
      "TransmitCoilName": "Body",
      "VariableFlipAngleFlag": "N",
      "WindowCenterWidthExplanation": "Algo1",
      "dBdt": 0.0},
    "slices": {}
  },
  "time": {
    "samples": {
      "AcquisitionNumber": [1, 2, 3, 4, 5, 6, 7, 8, 9, 10, 11, 12, 13, 14, 15, 16, 17, 18, 19, 20, 21, 22, 23, 24, 25, 26, 27, 28, 29, 30, 31, 32, 33, 34, 35, 36, 37, 38, 39, 40, 41, 42, 43, 44, 45, 46, 47, 48, 49, 50, 51, 52, 53, 54, 55, 56, 57, 58, 59, 60, 61, 62, 63, 64, 65, 66, 67, 68, 69, 70, 71, 72, 73, 74, 75, 76, 77, 78, 79, 80, 81, 82, 83, 84, 85, 86, 87, 88, 89, 90, 91, 92, 93, 94, 95, 96, 97, 98, 99, 100, 101, 102, 103, 104, 105, 106, 107, 108, 109, 110, 111, 112, 113, 114, 115, 116, 117, 118, 119, 120, 121, 122, 123, 124, 125, 126, 127, 128, 129, 130, 131, 132, 133, 134, 135, 136, 137, 138, 139, 140, 141, 142, 143, 144, 145, 146, 147, 148, 149, 150, 151, 152, 153, 154, 155, 156, 157, 158, 159, 160, 161, 162, 163, 164, 165, 166, 167, 168, 169, 170, 171, 172, 173, 174, 175, 176, 177, 178, 179, 180, 181, 182, 183, 184, 185, 186, 187, 188, 189, 190, 191, 192, 193, 194, 195, 196, 197, 198, 199, 200, 201, 202, 203, 204, 205, 206, 207, 208, 209, 210, 211, 212, 213, 214, 215, 216, 217, 218, 219, 220, 221, 222, 223, 224, 225, 226, 227, 228, 229, 230, 231, 232, 233, 234, 235, 236, 237],
      "AcquisitionTime": ["113650.202500", "113652.202500", "113654.202500", "113656.202500", "113658.202500", "113700.202500", "113702.202500", "113704.202500", "113706.202500", "113708.202500", "113710.202500", "113712.202500", "113714.202500", "113716.202500", "113718.202500", "113720.202500", "113722.202500", "113724.202500", "113726.202500", "113728.202500", "113730.202500", "113732.202500", "113734.202500", "113736.202500", "113738.202500", "113740.202500", "113742.202500", "113744.202500", "113746.202500", "113748.202500", "113750.202500", "113752.202500", "113754.202500", "113756.202500", "113758.202500", "113800.202500", "113802.202500", "113804.202500", "113806.202500", "113808.202500", "113810.202500", "113812.202500", "113814.202500", "113816.202500", "113818.202500", "113820.202500", "113822.202500", "113824.202500", "113826.202500", "113828.202500", "113830.202500", "113832.202500", "113834.202500", "113836.202500", "113838.202500", "113840.202500", "113842.202500", "113844.202500", "113846.202500", "113848.202500", "113850.202500", "113852.202500", "113854.202500", "113856.202500", "113858.202500", "113900.202500", "113902.202500", "113904.202500", "113906.202500", "113908.202500", "113910.202500", "113912.202500", "113914.202500", "113916.202500", "113918.202500", "113920.202500", "113922.202500", "113924.202500", "113926.202500", "113928.202500", "113930.202500", "113932.202500", "113934.202500", "113936.202500", "113938.202500", "113940.202500", "113942.202500", "113944.202500", "113946.202500", "113948.202500", "113950.202500", "113952.202500", "113954.202500", "113956.202500", "113958.202500", "114000.202500", "114002.202500", "114004.202500", "114006.202500", "114008.202500", "114010.202500", "114012.202500", "114014.202500", "114016.202500", "114018.202500", "114020.202500", "114022.202500", "114024.202500", "114026.202500", "114028.202500", "114030.202500", "114032.202500", "114034.202500", "114036.202500", "114038.202500", "114040.202500", "114042.202500", "114044.202500", "114046.202500", "114048.202500", "114050.202500", "114052.202500", "114054.202500", "114056.202500", "114058.202500", "114100.202500", "114102.202500", "114104.202500", "114106.202500", "114108.202500", "114110.202500", "114112.202500", "114114.202500", "114116.202500", "114118.202500", "114120.202500", "114122.202500", "114124.202500", "114126.202500", "114128.202500", "114130.202500", "114132.202500", "114134.202500", "114136.202500", "114138.202500", "114140.202500", "114142.202500", "114144.202500", "114146.202500", "114148.202500", "114150.202500", "114152.202500", "114154.202500", "114156.202500", "114158.202500", "114200.202500", "114202.202500", "114204.202500", "114206.202500", "114208.202500", "114210.202500", "114212.202500", "114214.202500", "114216.202500", "114218.202500", "114220.202500", "114222.202500", "114224.202500", "114226.202500", "114228.202500", "114230.202500", "114232.202500", "114234.202500", "114236.202500", "114238.202500", "114240.202500", "114242.202500", "114244.202500", "114246.202500", "114248.202500", "114250.202500", "114252.202500", "114254.202500", "114256.202500", "114258.202500", "114300.202500", "114302.202500", "114304.202500", "114306.202500", "114308.202500", "114310.202500", "114312.202500", "114314.202500", "114316.202500", "114318.202500", "114320.202500", "114322.202500", "114324.202500", "114326.202500", "114328.202500", "114330.202500", "114332.202500", "114334.202500", "114336.202500", "114338.202500", "114340.202500", "114342.202500", "114344.202500", "114346.202500", "114348.202500", "114350.202500", "114352.202500", "114354.202500", "114356.202500", "114358.202500", "114400.202500", "114402.202500", "114404.202500", "114406.202500", "114408.202500", "114410.202500", "114412.202500", "114414.202500", "114416.202500", "114418.202500", "114420.202500", "114422.202500", "114424.202500", "114426.202500", "114428.202500", "114430.202500", "114432.202500", "114434.202500", "114436.202500", "114438.202500", "114440.202500", "114442.202500"],
      "ContentTime": ["113736.533000", "113736.551000", "113736.554000", "113736.557000", "113736.560000", "113736.563000", "113736.566000", "113736.569000", "113736.572000", "113736.576000", "113736.579000", "113736.582000", "113736.585000", "113736.588000", "113736.591000", "113736.594000", "113736.598000", "113736.601000", "113736.605000", "113736.609000", "113736.612000", "113736.615000", "113736.618000", "113816.527000", "113816.530000", "113816.533000", "113816.536000", "113816.539000", "113816.549000", "113816.552000", "113816.555000", "113816.558000", "113816.561000", "113816.564000", "113816.567000", "113816.571000", "113816.574000", "113816.577000", "113816.580000", "113816.583000", "113816.587000", "113816.590000", "113816.593000", "113856.527000", "113856.530000", "113856.533000", "113856.537000", "113856.540000", "113856.543000", "113856.546000", "113856.549000", "113856.552000", "113856.555000", "113856.558000", "113856.566000", "113856.569000", "113856.572000", "113856.575000", "113856.578000", "113856.582000", "113856.585000", "113856.588000", "113856.591000", "113936.527000", "113936.530000", "113936.533000", "113936.536000", "113936.539000", "113936.543000", "113936.546000", "113936.549000", "113936.552000", "113936.555000", "113936.558000", "113936.561000", "113936.565000", "113936.568000", "113936.571000", "113936.574000", "113936.577000", "113936.580000", "113936.583000", "113936.586000", "114016.527000", "114016.530000", "114016.533000", "114016.536000", "114016.539000", "114016.543000", "114016.546000", "114016.549000", "114016.552000", "114016.555000", "114016.558000", "114016.562000", "114016.565000", "114016.568000", "114016.571000", "114016.574000", "114016.577000", "114016.581000", "114016.584000", "114016.587000", "114056.526000", "114056.529000", "114056.532000", "114056.535000", "114056.538000", "114056.542000", "114056.545000", "114056.548000", "114056.551000", "114056.554000", "114056.557000", "114056.561000", "114056.564000", "114056.567000", "114056.570000", "114056.573000", "114056.576000", "114056.580000", "114056.583000", "114056.586000", "114136.527000", "114136.530000", "114136.533000", "114136.536000", "114136.539000", "114136.542000", "114136.546000", "114136.549000", "114136.552000", "114136.555000", "114136.558000", "114136.561000", "114136.564000", "114136.567000", "114136.571000", "114136.574000", "114136.577000", "114136.580000", "114136.583000", "114136.586000", "114216.526000", "114216.529000", "114216.533000", "114216.536000", "114216.539000", "114216.542000", "114216.545000", "114216.548000", "114216.551000", "114216.555000", "114216.558000", "114216.561000", "114216.564000", "114216.567000", "114216.570000", "114216.573000", "114216.577000", "114216.580000", "114216.583000", "114216.586000", "114256.526000", "114256.530000", "114256.533000", "114256.536000", "114256.539000", "114256.542000", "114256.545000", "114256.548000", "114256.551000", "114256.554000", "114256.557000", "114256.561000", "114256.564000", "114256.567000", "114256.570000", "114256.573000", "114256.576000", "114256.579000", "114256.582000", "114256.585000", "114336.529000", "114336.532000", "114336.535000", "114336.538000", "114336.541000", "114336.544000", "114336.548000", "114336.551000", "114336.554000", "114336.557000", "114336.560000", "114336.563000", "114336.566000", "114336.569000", "114336.573000", "114336.576000", "114336.579000", "114336.582000", "114336.585000", "114336.588000", "114416.527000", "114416.531000", "114416.534000", "114416.537000", "114416.540000", "114416.543000", "114416.546000", "114416.549000", "114416.552000", "114416.555000", "114416.558000", "114416.561000", "114416.565000", "114416.568000", "114416.571000", "114416.574000", "114416.577000", "114416.580000", "114416.583000", "114416.586000", "114443.911000", "114443.915000", "114443.918000", "114443.921000", "114443.924000", "114443.927000", "114443.930000", "114443.933000", "114443.937000", "114443.940000", "114443.945000", "114443.949000", "114443.954000", "114443.959000"],
      "InstanceCreationTime": ["113736.533000", "113736.551000", "113736.554000", "113736.557000", "113736.560000", "113736.563000", "113736.566000", "113736.569000", "113736.572000", "113736.576000", "113736.579000", "113736.582000", "113736.585000", "113736.588000", "113736.591000", "113736.594000", "113736.598000", "113736.601000", "113736.605000", "113736.609000", "113736.612000", "113736.615000", "113736.618000", "113816.527000", "113816.530000", "113816.533000", "113816.536000", "113816.539000", "113816.549000", "113816.552000", "113816.555000", "113816.558000", "113816.561000", "113816.564000", "113816.567000", "113816.571000", "113816.574000", "113816.577000", "113816.580000", "113816.583000", "113816.587000", "113816.590000", "113816.593000", "113856.527000", "113856.530000", "113856.533000", "113856.537000", "113856.540000", "113856.543000", "113856.546000", "113856.549000", "113856.552000", "113856.555000", "113856.558000", "113856.566000", "113856.569000", "113856.572000", "113856.575000", "113856.578000", "113856.582000", "113856.585000", "113856.588000", "113856.591000", "113936.527000", "113936.530000", "113936.533000", "113936.536000", "113936.539000", "113936.543000", "113936.546000", "113936.549000", "113936.552000", "113936.555000", "113936.558000", "113936.561000", "113936.565000", "113936.568000", "113936.571000", "113936.574000", "113936.577000", "113936.580000", "113936.583000", "113936.586000", "114016.527000", "114016.530000", "114016.533000", "114016.536000", "114016.539000", "114016.543000", "114016.546000", "114016.549000", "114016.552000", "114016.555000", "114016.558000", "114016.562000", "114016.565000", "114016.568000", "114016.571000", "114016.574000", "114016.577000", "114016.581000", "114016.584000", "114016.587000", "114056.526000", "114056.529000", "114056.532000", "114056.535000", "114056.538000", "114056.542000", "114056.545000", "114056.548000", "114056.551000", "114056.554000", "114056.557000", "114056.561000", "114056.564000", "114056.567000", "114056.570000", "114056.573000", "114056.576000", "114056.580000", "114056.583000", "114056.586000", "114136.527000", "114136.530000", "114136.533000", "114136.536000", "114136.539000", "114136.542000", "114136.546000", "114136.549000", "114136.552000", "114136.555000", "114136.558000", "114136.561000", "114136.564000", "114136.567000", "114136.571000", "114136.574000", "114136.577000", "114136.580000", "114136.583000", "114136.586000", "114216.526000", "114216.529000", "114216.533000", "114216.536000", "114216.539000", "114216.542000", "114216.545000", "114216.548000", "114216.551000", "114216.555000", "114216.558000", "114216.561000", "114216.564000", "114216.567000", "114216.570000", "114216.573000", "114216.577000", "114216.580000", "114216.583000", "114216.586000", "114256.526000", "114256.530000", "114256.533000", "114256.536000", "114256.539000", "114256.542000", "114256.545000", "114256.548000", "114256.551000", "114256.554000", "114256.557000", "114256.561000", "114256.564000", "114256.567000", "114256.570000", "114256.573000", "114256.576000", "114256.579000", "114256.582000", "114256.585000", "114336.529000", "114336.532000", "114336.535000", "114336.538000", "114336.541000", "114336.544000", "114336.548000", "114336.551000", "114336.554000", "114336.557000", "114336.560000", "114336.563000", "114336.566000", "114336.569000", "114336.573000", "114336.576000", "114336.579000", "114336.582000", "114336.585000", "114336.588000", "114416.527000", "114416.531000", "114416.534000", "114416.537000", "114416.540000", "114416.543000", "114416.546000", "114416.549000", "114416.552000", "114416.555000", "114416.558000", "114416.561000", "114416.565000", "114416.568000", "114416.571000", "114416.574000", "114416.577000", "114416.580000", "114416.583000", "114416.586000", "114443.911000", "114443.915000", "114443.918000", "114443.921000", "114443.924000", "114443.927000", "114443.930000", "114443.933000", "114443.937000", "114443.940000", "114443.945000", "114443.949000", "114443.954000", "114443.959000"],
      "InstanceNumber": [1, 2, 3, 4, 5, 6, 7, 8, 9, 10, 11, 12, 13, 14, 15, 16, 17, 18, 19, 20, 21, 22, 23, 24, 25, 26, 27, 28, 29, 30, 31, 32, 33, 34, 35, 36, 37, 38, 39, 40, 41, 42, 43, 44, 45, 46, 47, 48, 49, 50, 51, 52, 53, 54, 55, 56, 57, 58, 59, 60, 61, 62, 63, 64, 65, 66, 67, 68, 69, 70, 71, 72, 73, 74, 75, 76, 77, 78, 79, 80, 81, 82, 83, 84, 85, 86, 87, 88, 89, 90, 91, 92, 93, 94, 95, 96, 97, 98, 99, 100, 101, 102, 103, 104, 105, 106, 107, 108, 109, 110, 111, 112, 113, 114, 115, 116, 117, 118, 119, 120, 121, 122, 123, 124, 125, 126, 127, 128, 129, 130, 131, 132, 133, 134, 135, 136, 137, 138, 139, 140, 141, 142, 143, 144, 145, 146, 147, 148, 149, 150, 151, 152, 153, 154, 155, 156, 157, 158, 159, 160, 161, 162, 163, 164, 165, 166, 167, 168, 169, 170, 171, 172, 173, 174, 175, 176, 177, 178, 179, 180, 181, 182, 183, 184, 185, 186, 187, 188, 189, 190, 191, 192, 193, 194, 195, 196, 197, 198, 199, 200, 201, 202, 203, 204, 205, 206, 207, 208, 209, 210, 211, 212, 213, 214, 215, 216, 217, 218, 219, 220, 221, 222, 223, 224, 225, 226, 227, 228, 229, 230, 231, 232, 233, 234, 235, 236, 237],
      "LargestImagePixelValue": [2097, 2402, 1963, 2056, 1940, 1991, 1970, 1975, 1959, 1993, 2042, 2270, 1934, 1945, 1980, 1994, 2135, 1977, 2133, 2263, 1976, 1967, 1965, 1993, 2196, 1985, 2787, 2099, 1983, 1992, 1957, 2302, 2551, 1956, 2006, 2584, 1988, 2035, 1924, 2630, 1978, 1952, 2436, 1937, 2349, 2016, 1951, 2584, 1941, 2001, 2003, 1960, 2192, 2683, 2009, 1966, 1952, 2075, 2027, 1928, 1995, 1962, 2055, 2455, 2194, 1946, 1974, 2636, 2532, 1963, 2007, 2525, 2093, 2049, 1933, 2449, 1946, 1973, 1900, 2275, 2002, 2070, 2190, 2183, 1922, 1995, 1959, 1961, 1961, 1997, 2177, 1956, 1988, 2432, 1962, 1923, 2104, 1954, 2451, 1997, 2083, 2565, 1977, 2081, 1930, 2006, 2003, 1933, 2091, 2131, 2008, 1967, 2258, 2191, 2034, 1992, 1938, 1962, 1925, 2616, 2569, 1974, 1966, 1957, 2407, 2341, 1975, 1954, 2419, 2327, 1970, 1952, 1936, 2107, 2485, 2454, 2074, 1952, 2429, 2025, 1946, 1969, 2120, 1987, 2271, 2020, 1963, 1984, 1961, 1938, 1970, 2062, 1993, 2003, 1971, 1959, 1975, 2213, 2010, 2118, 1990, 2099, 1986, 2474, 2106, 2013, 1991, 1965, 1958, 2299, 2127, 2247, 1983, 1967, 1966, 1974, 2542, 2419, 1997, 2027, 2014, 1976, 1979, 2406, 1989, 2567, 1984, 1970, 2020, 2005, 1978, 1986, 2437, 2092, 1986, 2142, 2829, 2003, 1987, 1957, 2175, 1988, 1983, 1962, 1984, 1968, 2642, 1996, 2582, 2891, 2893, 1960, 1978, 1968, 2428, 2309, 2014, 1942, 2435, 2469, 2131, 1953, 2333, 2010, 2082, 2013, 1951, 2249, 2621, 2838, 2011, 1974, 1953, 1975, 2018, 2005, 1972],
      "WindowCenter": [752.0, 752.0, 752.0, 753.0, 753.0, 753.0, 753.0, 753.0, 753.0, 754.0, 754.0, 754.0, 754.0, 754.0, 754.0, 754.0, 754.0, 753.0, 754.0, 753.0, 753.0, 754.0, 754.0, 753.0, 753.0, 754.0, 754.0, 753.0, 753.0, 754.0, 754.0, 754.0, 753.0, 753.0, 754.0, 754.0, 753.0, 753.0, 753.0, 753.0, 752.0, 753.0, 753.0, 753.0, 753.0, 753.0, 753.0, 754.0, 753.0, 752.0, 753.0, 753.0, 753.0, 753.0, 753.0, 753.0, 752.0, 752.0, 751.0, 751.0, 752.0, 753.0, 754.0, 753.0, 753.0, 754.0, 754.0, 754.0, 753.0, 753.0, 754.0, 754.0, 753.0, 752.0, 752.0, 753.0, 752.0, 753.0, 752.0, 752.0, 752.0, 753.0, 753.0, 752.0, 752.0, 753.0, 753.0, 752.0, 752.0, 753.0, 753.0, 752.0, 752.0, 752.0, 753.0, 753.0, 754.0, 754.0, 754.0, 753.0, 753.0, 754.0, 753.0, 753.0, 752.0, 751.0, 752.0, 753.0, 753.0, 752.0, 752.0, 754.0, 753.0, 751.0, 752.0, 752.0, 752.0, 752.0, 752.0, 752.0, 752.0, 752.0, 752.0, 752.0, 753.0, 753.0, 752.0, 753.0, 753.0, 753.0, 752.0, 752.0, 753.0, 754.0, 754.0, 753.0, 752.0, 752.0, 752.0, 750.0, 751.0, 752.0, 752.0, 753.0, 752.0, 751.0, 750.0, 750.0, 752.0, 751.0, 751.0, 752.0, 752.0, 752.0, 753.0, 752.0, 752.0, 752.0, 753.0, 752.0, 752.0, 752.0, 753.0, 753.0, 752.0, 752.0, 752.0, 752.0, 752.0, 753.0, 752.0, 752.0, 751.0, 752.0, 752.0, 753.0, 753.0, 752.0, 752.0, 753.0, 754.0, 754.0, 753.0, 753.0, 752.0, 753.0, 752.0, 752.0, 752.0, 752.0, 752.0, 752.0, 752.0, 752.0, 753.0, 753.0, 752.0, 752.0, 751.0, 751.0, 752.0, 752.0, 752.0, 753.0, 754.0, 753.0, 753.0, 753.0, 753.0, 752.0, 751.0, 750.0, 750.0, 751.0, 751.0, 752.0, 752.0, 753.0, 753.0, 753.0, 753.0, 753.0, 754.0, 753.0, 753.0, 753.0, 753.0, 753.0, 754.0, 752.0, 752.0, 752.0, 752.0, 751.0, 752.0, 753.0, 753.0],
      "WindowWidth": [1708.0, 1707.0, 1706.0, 1710.0, 1710.0, 1711.0, 1711.0, 1711.0, 1711.0, 1715.0, 1715.0, 1717.0, 1712.0, 1713.0, 1713.0, 1713.0, 1713.0, 1712.0, 1717.0, 1712.0, 1710.0, 1712.0, 1712.0, 1712.0, 1712.0, 1714.0, 1719.0, 1710.0, 1709.0, 1714.0, 1713.0, 1715.0, 1714.0, 1710.0, 1713.0, 1716.0, 1710.0, 1711.0, 1710.0, 1712.0, 1708.0, 1709.0, 1714.0, 1710.0, 1711.0, 1712.0, 1710.0, 1715.0, 1710.0, 1707.0, 1709.0, 1710.0, 1712.0, 1713.0, 1710.0, 1710.0, 1708.0, 1706.0, 1703.0, 1702.0, 1706.0, 1712.0, 1713.0, 1713.0, 1713.0, 1713.0, 1714.0, 1715.0, 1711.0, 1710.0, 1714.0, 1716.0, 1711.0, 1708.0, 1707.0, 1711.0, 1707.0, 1710.0, 1706.0, 1707.0, 1707.0, 1712.0, 1710.0, 1707.0, 1706.0, 1710.0, 1708.0, 1706.0, 1706.0, 1709.0, 1710.0, 1705.0, 1705.0, 1708.0, 1708.0, 1710.0, 1713.0, 1711.0, 1714.0, 1710.0, 1709.0, 1713.0, 1710.0, 1711.0, 1705.0, 1702.0, 1707.0, 1710.0, 1708.0, 1705.0, 1708.0, 1711.0, 1709.0, 1704.0, 1705.0, 1707.0, 1705.0, 1705.0, 1704.0, 1709.0, 1708.0, 1705.0, 1706.0, 1705.0, 1711.0, 1710.0, 1707.0, 1709.0, 1713.0, 1709.0, 1704.0, 1705.0, 1708.0, 1713.0, 1713.0, 1710.0, 1707.0, 1706.0, 1706.0, 1699.0, 1702.0, 1705.0, 1707.0, 1709.0, 1707.0, 1702.0, 1700.0, 1700.0, 1703.0, 1703.0, 1704.0, 1705.0, 1705.0, 1707.0, 1710.0, 1708.0, 1707.0, 1707.0, 1707.0, 1708.0, 1705.0, 1706.0, 1710.0, 1711.0, 1707.0, 1707.0, 1705.0, 1704.0, 1706.0, 1709.0, 1707.0, 1707.0, 1704.0, 1706.0, 1706.0, 1710.0, 1711.0, 1707.0, 1705.0, 1708.0, 1712.0, 1714.0, 1709.0, 1710.0, 1706.0, 1712.0, 1706.0, 1704.0, 1704.0, 1704.0, 1706.0, 1705.0, 1708.0, 1707.0, 1708.0, 1707.0, 1711.0, 1706.0, 1703.0, 1703.0, 1706.0, 1705.0, 1708.0, 1710.0, 1712.0, 1709.0, 1711.0, 1708.0, 1709.0, 1707.0, 1703.0, 1696.0, 1698.0, 1701.0, 1704.0, 1705.0, 1706.0, 1706.0, 1710.0, 1709.0, 1710.0, 1709.0, 1712.0, 1708.0, 1709.0, 1709.0, 1707.0, 1710.0, 1712.0, 1709.0, 1704.0, 1704.0, 1703.0, 1701.0, 1704.0, 1707.0, 1707.0]
    },
    "slices": {}
  }
}