{
  "AcquisitionMatrixPE": 70,
  "AcquisitionNumber": 1,
  "AcquisitionTime": "12:29:18.717500",
  "BandwidthPerPixelPhaseEncode": 38.873,
  "BaseResolution": 70,
  "BodyPartExamined": "HEAD",
  "ConsistencyInfo": "N4_VE11B_LATEST_20150530",
  "ConversionSoftware": "dcm2niix",
  "ConversionSoftwareVersion": "v1.0.20190410  GCC6.3.0",
  "DerivedVendorReportedEchoSpacing": 0.000489996,
  "DeviceSerialNumber": "66088",
  "DwellTime": 2.9e-06,
  "EchoTime": 0.03,
  "EchoTrainLength": 53,
  "EffectiveEchoSpacing": 0.000367497,
  "FlipAngle": 90,
  "ImageOrientationPatientDICOM": [0.999685, -0.000377934, 0.0250804, 0.00872414, 0.942699, -0.333532],
  "ImageType": [
    "ORIGINAL",
    "PRIMARY",
    "M",
    "ND",
    "NORM",
    "MOSAIC"
],
  "ImagingFrequency": 123.191,
  "InPlanePhaseEncodingDirectionDICOM": "COL",
  "InstitutionAddress": "Street_StreetNo_City_District_IR_ZIP",
  "InstitutionName": "Hospital",
  "InstitutionalDepartmentName": "Department",
  "MRAcquisitionType": "2D",
  "MagneticFieldStrength": 3,
  "Manufacturer": "Siemens",
  "ManufacturersModelName": "Prisma",
  "Modality": "MR",
  "ParallelReductionFactorInPlane": 2,
  "PartialFourier": 1,
  "PatientPosition": "HFS",
  "PercentPhaseFOV": 100,
  "PhaseEncodingDirection": "j-",
  "PhaseEncodingSteps": 105,
  "PhaseOversampling": 0.5,
  "PhaseResolution": 1,
  "PixelBandwidth": 2465,
  "ProcedureStepDescription": "SEARCH_KOHANPOUR_EILBEYGI",
  "ProtocolName": "ep2d_p2_Task_3.5_measurment:237",
  "PulseSequenceDetails": "%SiemensSeq%_ep2d_pace",
  "ReceiveCoilActiveElements": "HC1-7;NC1",
  "ReceiveCoilName": "HeadNeck_64",
  "ReconMatrixPE": 70,
  "RefLinesPE": 24,
  "RepetitionTime": 2,
  "SAR": 0.0744237,
  "ScanOptions": "FS",
  "ScanningSequence": "EP",
  "SequenceName": "_epfid2d1_70",
  "SequenceVariant": "SK_OSP",
  "SeriesDescription": "ep2d_p2_Task_3.5_measurment:237",
  "SeriesNumber": 14,
  "ShimSetting": [2511, -4337, -3237, 208, -146, 311, -146, 130],
  "SliceThickness": 3.5,
  "SliceTiming": [0.99, 0, 1.05, 0.06, 1.1075, 0.1175, 1.165, 0.175, 1.2225, 0.235, 1.2825, 0.2925, 1.34, 0.35, 1.3975, 0.4075, 1.4575, 0.4675, 1.515, 0.525, 1.5725, 0.5825, 1.6325, 0.6425, 1.69, 0.7, 1.7475, 0.7575, 1.805, 0.815, 1.865, 0.875, 1.9225, 0.9325],
  "SoftwareVersions": "syngo_MR_E11",
  "SpacingBetweenSlices": 3.85,
  "StationName": "AWP66088",
  "TaskName": "categorySelectivity",
  "TotalReadoutTime": 0.0253573,
  "TxRefAmp": 241.204,
  "dcmmeta_affine": [
    [-3.5417425632476807, 0.030908390879631042, 0.09054140001535416, 121.46082305908203],
    [0.0013389670057222247, 3.33984637260437, -1.2845348119735718, -93.73316955566406],
    [0.08885643631219864, 1.1816545724868774, 3.6282601356506348, -44.00533676147461],
    [0.0, 0.0, 0.0, 1.0]
],
  "dcmmeta_reorient_transform": [
    [0.0, -1.0, 0.0, 69.0],
    [1.0, 0.0, 0.0, 0.0],
    [0.0, 0.0, 1.0, 0.0],
    [0.0, 0.0, 0.0, 1.0]
],
  "dcmmeta_shape": [70, 70, 34, 237],
  "dcmmeta_slice_dim": 2,
  "dcmmeta_version": 0.6,
  "global": {
    "const": {
      "AcquisitionMatrix": [70, 0, 0, 70],
      "AngioFlag": "N",
      "BitsAllocated": 16,
      "BitsStored": 12,
      "BodyPartExamined": "HEAD",
      "Columns": 420,
      "EchoNumbers": 1,
      "EchoTime": 30.0,
      "EchoTrainLength": 53,
      "FlipAngle": 90.0,
      "HighBit": 11,
      "ImageOrientationPatient": [0.99968536470255, -0.0003779342299, 0.02508044587437, 0.00872414271927, 0.94269857385881, -0.3335315400054],
      "ImagePositionPatient": [-748.80739879159, -720.9550343289, 228.76851192569],
      "ImageType": [
        "ORIGINAL",
        "PRIMARY",
        "M",
        "ND",
        "NORM",
        "MOSAIC"
],
      "ImagedNucleus": "1H",
      "ImagingFrequency": 123.19113,
      "InPlanePhaseEncodingDirection": "COL",
      "MRAcquisitionType": "2D",
      "MagneticFieldStrength": 3.0,
      "Manufacturer": "SIEMENS",
      "ManufacturerModelName": "Prisma",
      "Modality": "MR",
      "NumberOfAverages": 1.0,
      "NumberOfPhaseEncodingSteps": 105,
      "PercentPhaseFieldOfView": 100.0,
      "PercentSampling": 100.0,
      "PerformedProcedureStepStartTime": "110914.857000",
      "PhotometricInterpretation": "MONOCHROME2",
      "PixelBandwidth": 2465.0,
      "PixelRepresentation": 0,
      "PixelSpacing": [3.542857170105, 3.542857170105],
      "ProtocolName": "ep2d_p2_Task_3.5_measurment:237",
      "RepetitionTime": 2000.0,
      "Rows": 420,
      "SAR": 0.07442370780456,
      "SamplesPerPixel": 1,
      "ScanOptions": "FS",
      "ScanningSequence": "EP",
      "SequenceName": "*epfid2d1_70",
      "SequenceVariant": [
        "SK",
        "OSP"
],
      "SeriesDescription": "ep2d_p2_Task_3.5_measurment:237",
      "SeriesNumber": 14,
      "SeriesTime": "123008.133000",
      "SliceLocation": -7.340795094479,
      "SliceThickness": 3.5,
      "SmallestImagePixelValue": 0,
      "SoftwareVersions": "syngo MR E11",
      "SpacingBetweenSlices": 3.849999906827,
      "SpecificCharacterSet": "ISO_IR 100",
      "StudyID": "1",
      "StudyTime": "110914.803000",
      "TransmitCoilName": "Body",
      "VariableFlipAngleFlag": "N",
      "WindowCenterWidthExplanation": "Algo1",
      "dBdt": 0.0},
    "slices": {}
  },
  "time": {
    "samples": {
      "AcquisitionNumber": [1, 2, 3, 4, 5, 6, 7, 8, 9, 10, 11, 12, 13, 14, 15, 16, 17, 18, 19, 20, 21, 22, 23, 24, 25, 26, 27, 28, 29, 30, 31, 32, 33, 34, 35, 36, 37, 38, 39, 40, 41, 42, 43, 44, 45, 46, 47, 48, 49, 50, 51, 52, 53, 54, 55, 56, 57, 58, 59, 60, 61, 62, 63, 64, 65, 66, 67, 68, 69, 70, 71, 72, 73, 74, 75, 76, 77, 78, 79, 80, 81, 82, 83, 84, 85, 86, 87, 88, 89, 90, 91, 92, 93, 94, 95, 96, 97, 98, 99, 100, 101, 102, 103, 104, 105, 106, 107, 108, 109, 110, 111, 112, 113, 114, 115, 116, 117, 118, 119, 120, 121, 122, 123, 124, 125, 126, 127, 128, 129, 130, 131, 132, 133, 134, 135, 136, 137, 138, 139, 140, 141, 142, 143, 144, 145, 146, 147, 148, 149, 150, 151, 152, 153, 154, 155, 156, 157, 158, 159, 160, 161, 162, 163, 164, 165, 166, 167, 168, 169, 170, 171, 172, 173, 174, 175, 176, 177, 178, 179, 180, 181, 182, 183, 184, 185, 186, 187, 188, 189, 190, 191, 192, 193, 194, 195, 196, 197, 198, 199, 200, 201, 202, 203, 204, 205, 206, 207, 208, 209, 210, 211, 212, 213, 214, 215, 216, 217, 218, 219, 220, 221, 222, 223, 224, 225, 226, 227, 228, 229, 230, 231, 232, 233, 234, 235, 236, 237],
      "AcquisitionTime": ["122918.717500", "122920.717500", "122922.717500", "122924.717500", "122926.717500", "122928.717500", "122930.717500", "122932.717500", "122934.717500", "122936.717500", "122938.717500", "122940.717500", "122942.717500", "122944.717500", "122946.717500", "122948.717500", "122950.717500", "122952.717500", "122954.717500", "122956.717500", "122958.717500", "123000.717500", "123002.717500", "123004.717500", "123006.717500", "123008.717500", "123010.717500", "123012.717500", "123014.717500", "123016.717500", "123018.717500", "123020.717500", "123022.717500", "123024.717500", "123026.717500", "123028.717500", "123030.717500", "123032.717500", "123034.717500", "123036.717500", "123038.717500", "123040.717500", "123042.717500", "123044.717500", "123046.717500", "123048.717500", "123050.717500", "123052.717500", "123054.717500", "123056.717500", "123058.717500", "123100.717500", "123102.717500", "123104.717500", "123106.717500", "123108.717500", "123110.717500", "123112.717500", "123114.717500", "123116.717500", "123118.717500", "123120.717500", "123122.717500", "123124.717500", "123126.717500", "123128.717500", "123130.717500", "123132.717500", "123134.717500", "123136.717500", "123138.717500", "123140.717500", "123142.717500", "123144.717500", "123146.717500", "123148.717500", "123150.717500", "123152.717500", "123154.717500", "123156.717500", "123158.717500", "123200.717500", "123202.717500", "123204.717500", "123206.717500", "123208.717500", "123210.717500", "123212.717500", "123214.717500", "123216.717500", "123218.717500", "123220.717500", "123222.717500", "123224.717500", "123226.717500", "123228.717500", "123230.717500", "123232.717500", "123234.717500", "123236.717500", "123238.717500", "123240.717500", "123242.717500", "123244.717500", "123246.717500", "123248.717500", "123250.717500", "123252.717500", "123254.717500", "123256.717500", "123258.717500", "123300.717500", "123302.717500", "123304.717500", "123306.717500", "123308.717500", "123310.717500", "123312.717500", "123314.717500", "123316.717500", "123318.717500", "123320.717500", "123322.717500", "123324.717500", "123326.717500", "123328.717500", "123330.717500", "123332.717500", "123334.717500", "123336.717500", "123338.717500", "123340.717500", "123342.717500", "123344.717500", "123346.717500", "123348.717500", "123350.717500", "123352.717500", "123354.717500", "123356.717500", "123358.717500", "123400.717500", "123402.717500", "123404.717500", "123406.717500", "123408.717500", "123410.717500", "123412.717500", "123414.717500", "123416.717500", "123418.717500", "123420.717500", "123422.717500", "123424.717500", "123426.717500", "123428.717500", "123430.717500", "123432.717500", "123434.717500", "123436.717500", "123438.717500", "123440.717500", "123442.717500", "123444.717500", "123446.717500", "123448.717500", "123450.717500", "123452.717500", "123454.717500", "123456.717500", "123458.717500", "123500.717500", "123502.717500", "123504.717500", "123506.717500", "123508.717500", "123510.717500", "123512.717500", "123514.717500", "123516.717500", "123518.717500", "123520.717500", "123522.717500", "123524.717500", "123526.717500", "123528.717500", "123530.717500", "123532.717500", "123534.717500", "123536.717500", "123538.717500", "123540.717500", "123542.717500", "123544.717500", "123546.717500", "123548.717500", "123550.717500", "123552.717500", "123554.717500", "123556.717500", "123558.717500", "123600.717500", "123602.717500", "123604.717500", "123606.717500", "123608.717500", "123610.717500", "123612.717500", "123614.717500", "123616.717500", "123618.717500", "123620.717500", "123622.717500", "123624.717500", "123626.717500", "123628.717500", "123630.717500", "123632.717500", "123634.717500", "123636.717500", "123638.717500", "123640.717500", "123642.717500", "123644.717500", "123646.717500", "123648.717500", "123650.717500", "123652.717500", "123654.717500", "123656.717500", "123658.717500", "123700.717500", "123702.717500", "123704.717500", "123706.717500", "123708.717500", "123710.717500"],
      "ContentTime": ["123008.138000", "123008.143000", "123008.146000", "123008.150000", "123008.153000", "123008.156000", "123008.159000", "123008.162000", "123008.165000", "123008.168000", "123008.171000", "123008.175000", "123008.178000", "123008.181000", "123008.184000", "123008.187000", "123008.190000", "123008.193000", "123008.206000", "123008.209000", "123008.212000", "123008.215000", "123008.219000", "123008.222000", "123048.131000", "123048.134000", "123048.137000", "123048.140000", "123048.143000", "123048.147000", "123048.150000", "123048.153000", "123048.162000", "123048.165000", "123048.169000", "123048.172000", "123048.175000", "123048.178000", "123048.181000", "123048.184000", "123048.195000", "123048.198000", "123048.201000", "123048.204000", "123128.131000", "123128.134000", "123128.137000", "123128.140000", "123128.143000", "123128.146000", "123128.149000", "123128.153000", "123128.156000", "123128.159000", "123128.162000", "123128.165000", "123128.168000", "123128.171000", "123128.175000", "123128.178000", "123128.181000", "123128.184000", "123128.187000", "123128.190000", "123208.131000", "123208.135000", "123208.138000", "123208.141000", "123208.144000", "123208.147000", "123208.150000", "123208.153000", "123208.156000", "123208.159000", "123208.162000", "123208.166000", "123208.169000", "123208.172000", "123208.175000", "123208.178000", "123208.181000", "123208.185000", "123208.188000", "123208.191000", "123248.131000", "123248.134000", "123248.138000", "123248.141000", "123248.144000", "123248.147000", "123248.150000", "123248.153000", "123248.156000", "123248.160000", "123248.163000", "123248.166000", "123248.169000", "123248.172000", "123248.176000", "123248.179000", "123248.182000", "123248.185000", "123248.188000", "123248.204000", "123328.131000", "123328.135000", "123328.138000", "123328.141000", "123328.144000", "123328.147000", "123328.150000", "123328.153000", "123328.156000", "123328.160000", "123328.163000", "123328.166000", "123328.169000", "123328.173000", "123328.176000", "123328.179000", "123328.182000", "123328.185000", "123328.188000", "123328.191000", "123408.133000", "123408.137000", "123408.140000", "123408.143000", "123408.146000", "123408.149000", "123408.152000", "123408.155000", "123408.158000", "123408.161000", "123408.164000", "123408.168000", "123408.171000", "123408.174000", "123408.177000", "123408.180000", "123408.183000", "123408.195000", "123408.198000", "123408.201000", "123448.131000", "123448.135000", "123448.138000", "123448.141000", "123448.144000", "123448.147000", "123448.150000", "123448.154000", "123448.157000", "123448.160000", "123448.163000", "123448.166000", "123448.169000", "123448.173000", "123448.176000", "123448.179000", "123448.182000", "123448.185000", "123448.188000", "123448.191000", "123528.131000", "123528.134000", "123528.137000", "123528.140000", "123528.144000", "123528.158000", "123528.161000", "123528.164000", "123528.167000", "123528.171000", "123528.174000", "123528.177000", "123528.180000", "123528.183000", "123528.186000", "123528.190000", "123528.193000", "123528.196000", "123528.199000", "123528.202000", "123608.132000", "123608.136000", "123608.139000", "123608.142000", "123608.145000", "123608.148000", "123608.152000", "123608.155000", "123608.158000", "123608.161000", "123608.164000", "123608.167000", "123608.189000", "123608.192000", "123608.195000", "123608.198000", "123608.201000", "123608.204000", "123608.207000", "123608.210000", "123648.132000", "123648.135000", "123648.138000", "123648.141000", "123648.145000", "123648.148000", "123648.151000", "123648.154000", "123648.157000", "123648.160000", "123648.163000", "123648.167000", "123648.170000", "123648.174000", "123648.177000", "123648.180000", "123648.183000", "123648.186000", "123648.189000", "123648.192000", "123712.675000", "123712.678000", "123712.682000", "123712.685000", "123712.689000", "123712.692000", "123712.695000", "123712.698000", "123712.702000", "123712.705000", "123712.716000", "123712.719000", "123712.722000"],
      "InstanceCreationTime": ["123008.138000", "123008.143000", "123008.146000", "123008.150000", "123008.153000", "123008.156000", "123008.159000", "123008.162000", "123008.165000", "123008.168000", "123008.171000", "123008.175000", "123008.178000", "123008.181000", "123008.184000", "123008.187000", "123008.190000", "123008.193000", "123008.206000", "123008.209000", "123008.212000", "123008.215000", "123008.219000", "123008.222000", "123048.131000", "123048.134000", "123048.137000", "123048.140000", "123048.143000", "123048.147000", "123048.150000", "123048.153000", "123048.162000", "123048.165000", "123048.169000", "123048.172000", "123048.175000", "123048.178000", "123048.181000", "123048.184000", "123048.195000", "123048.198000", "123048.201000", "123048.204000", "123128.131000", "123128.134000", "123128.137000", "123128.140000", "123128.143000", "123128.146000", "123128.149000", "123128.153000", "123128.156000", "123128.159000", "123128.162000", "123128.165000", "123128.168000", "123128.171000", "123128.175000", "123128.178000", "123128.181000", "123128.184000", "123128.187000", "123128.190000", "123208.131000", "123208.135000", "123208.138000", "123208.141000", "123208.144000", "123208.147000", "123208.150000", "123208.153000", "123208.156000", "123208.159000", "123208.162000", "123208.166000", "123208.169000", "123208.172000", "123208.175000", "123208.178000", "123208.181000", "123208.185000", "123208.188000", "123208.191000", "123248.131000", "123248.134000", "123248.138000", "123248.141000", "123248.144000", "123248.147000", "123248.150000", "123248.153000", "123248.156000", "123248.160000", "123248.163000", "123248.166000", "123248.169000", "123248.172000", "123248.176000", "123248.179000", "123248.182000", "123248.185000", "123248.188000", "123248.204000", "123328.131000", "123328.135000", "123328.138000", "123328.141000", "123328.144000", "123328.147000", "123328.150000", "123328.153000", "123328.156000", "123328.160000", "123328.163000", "123328.166000", "123328.169000", "123328.173000", "123328.176000", "123328.179000", "123328.182000", "123328.185000", "123328.188000", "123328.191000", "123408.133000", "123408.137000", "123408.140000", "123408.143000", "123408.146000", "123408.149000", "123408.152000", "123408.155000", "123408.158000", "123408.161000", "123408.164000", "123408.168000", "123408.171000", "123408.174000", "123408.177000", "123408.180000", "123408.183000", "123408.195000", "123408.198000", "123408.201000", "123448.131000", "123448.135000", "123448.138000", "123448.141000", "123448.144000", "123448.147000", "123448.150000", "123448.154000", "123448.157000", "123448.160000", "123448.163000", "123448.166000", "123448.169000", "123448.173000", "123448.176000", "123448.179000", "123448.182000", "123448.185000", "123448.188000", "123448.191000", "123528.131000", "123528.134000", "123528.137000", "123528.140000", "123528.144000", "123528.158000", "123528.161000", "123528.164000", "123528.167000", "123528.171000", "123528.174000", "123528.177000", "123528.180000", "123528.183000", "123528.186000", "123528.190000", "123528.193000", "123528.196000", "123528.199000", "123528.202000", "123608.132000", "123608.136000", "123608.139000", "123608.142000", "123608.145000", "123608.148000", "123608.152000", "123608.155000", "123608.158000", "123608.161000", "123608.164000", "123608.167000", "123608.189000", "123608.192000", "123608.195000", "123608.198000", "123608.201000", "123608.204000", "123608.207000", "123608.210000", "123648.132000", "123648.135000", "123648.138000", "123648.141000", "123648.145000", "123648.148000", "123648.151000", "123648.154000", "123648.157000", "123648.160000", "123648.163000", "123648.167000", "123648.170000", "123648.174000", "123648.177000", "123648.180000", "123648.183000", "123648.186000", "123648.189000", "123648.192000", "123712.675000", "123712.678000", "123712.682000", "123712.685000", "123712.689000", "123712.692000", "123712.695000", "123712.698000", "123712.702000", "123712.705000", "123712.716000", "123712.719000", "123712.722000"],
      "InstanceNumber": [1, 2, 3, 4, 5, 6, 7, 8, 9, 10, 11, 12, 13, 14, 15, 16, 17, 18, 19, 20, 21, 22, 23, 24, 25, 26, 27, 28, 29, 30, 31, 32, 33, 34, 35, 36, 37, 38, 39, 40, 41, 42, 43, 44, 45, 46, 47, 48, 49, 50, 51, 52, 53, 54, 55, 56, 57, 58, 59, 60, 61, 62, 63, 64, 65, 66, 67, 68, 69, 70, 71, 72, 73, 74, 75, 76, 77, 78, 79, 80, 81, 82, 83, 84, 85, 86, 87, 88, 89, 90, 91, 92, 93, 94, 95, 96, 97, 98, 99, 100, 101, 102, 103, 104, 105, 106, 107, 108, 109, 110, 111, 112, 113, 114, 115, 116, 117, 118, 119, 120, 121, 122, 123, 124, 125, 126, 127, 128, 129, 130, 131, 132, 133, 134, 135, 136, 137, 138, 139, 140, 141, 142, 143, 144, 145, 146, 147, 148, 149, 150, 151, 152, 153, 154, 155, 156, 157, 158, 159, 160, 161, 162, 163, 164, 165, 166, 167, 168, 169, 170, 171, 172, 173, 174, 175, 176, 177, 178, 179, 180, 181, 182, 183, 184, 185, 186, 187, 188, 189, 190, 191, 192, 193, 194, 195, 196, 197, 198, 199, 200, 201, 202, 203, 204, 205, 206, 207, 208, 209, 210, 211, 212, 213, 214, 215, 216, 217, 218, 219, 220, 221, 222, 223, 224, 225, 226, 227, 228, 229, 230, 231, 232, 233, 234, 235, 236, 237],
      "LargestImagePixelValue": [2036, 1931, 1975, 1938, 1999, 2046, 2026, 1951, 1966, 1996, 1951, 1984, 2017, 2263, 1964, 2191, 2230, 2116, 1939, 1980, 2372, 2580, 2003, 1958, 1979, 1947, 2008, 1950, 2093, 1997, 1973, 1951, 2304, 1957, 1964, 1976, 1984, 1961, 1970, 1947, 2010, 1977, 2178, 2176, 2100, 1935, 2439, 2553, 1984, 2370, 1979, 1997, 1945, 1948, 1968, 2209, 1934, 2541, 2350, 1972, 1950, 1975, 1990, 1974, 1989, 2069, 2024, 2000, 2035, 1953, 2142, 2014, 2034, 1967, 1952, 2084, 1965, 1980, 1954, 1956, 1937, 2016, 1961, 1934, 1950, 1960, 1938, 2241, 1951, 2040, 2077, 2014, 1975, 1948, 1922, 2157, 1986, 1951, 2016, 2025, 1942, 2005, 1951, 1933, 1951, 1954, 1968, 1984, 2035, 1964, 2017, 1987, 1941, 1948, 1943, 1917, 1989, 1965, 1952, 1938, 1993, 1999, 1975, 1956, 2153, 2028, 2427, 1931, 2367, 2691, 1947, 2301, 1944, 1990, 1984, 2193, 1981, 1969, 1984, 1957, 2026, 1995, 2119, 2039, 1946, 1976, 1959, 2021, 1999, 2034, 1984, 2183, 2219, 1930, 2184, 2218, 2064, 2019, 2085, 2181, 2018, 2173, 1977, 1982, 2091, 2133, 1956, 1993, 1967, 2025, 2103, 1989, 1953, 2113, 2136, 1985, 2053, 1996, 2046, 2000, 1970, 2008, 2150, 1983, 1976, 1988, 1967, 2098, 2367, 1951, 1990, 2228, 2093, 2243, 2073, 1979, 2010, 2097, 2002, 2032, 2088, 2430, 2017, 2181, 2474, 1985, 2033, 2029, 2093, 2022, 2064, 2012, 1999, 2164, 2151, 2034, 2164, 2076, 2091, 2271, 2011, 2093, 2017, 2159, 2234, 2018, 1994, 2019, 2004, 2037, 2006, 2009, 2022, 2043, 1999, 2011, 2027],
      "WindowCenter": [747.0, 747.0, 748.0, 748.0, 748.0, 748.0, 748.0, 748.0, 748.0, 748.0, 748.0, 749.0, 749.0, 749.0, 750.0, 750.0, 748.0, 747.0, 747.0, 747.0, 747.0, 748.0, 747.0, 748.0, 747.0, 748.0, 748.0, 748.0, 747.0, 747.0, 748.0, 748.0, 748.0, 748.0, 748.0, 749.0, 750.0, 750.0, 749.0, 749.0, 749.0, 749.0, 749.0, 749.0, 749.0, 750.0, 750.0, 750.0, 749.0, 749.0, 748.0, 748.0, 747.0, 748.0, 748.0, 749.0, 749.0, 749.0, 749.0, 748.0, 749.0, 749.0, 749.0, 749.0, 749.0, 749.0, 749.0, 749.0, 750.0, 749.0, 749.0, 749.0, 749.0, 749.0, 749.0, 749.0, 750.0, 750.0, 750.0, 750.0, 749.0, 749.0, 748.0, 749.0, 749.0, 749.0, 749.0, 750.0, 749.0, 750.0, 749.0, 748.0, 749.0, 749.0, 750.0, 749.0, 749.0, 749.0, 750.0, 749.0, 748.0, 748.0, 749.0, 749.0, 749.0, 749.0, 749.0, 749.0, 750.0, 749.0, 749.0, 749.0, 750.0, 749.0, 749.0, 750.0, 749.0, 749.0, 749.0, 749.0, 749.0, 749.0, 749.0, 749.0, 751.0, 750.0, 750.0, 750.0, 751.0, 749.0, 748.0, 749.0, 749.0, 749.0, 749.0, 749.0, 749.0, 750.0, 750.0, 750.0, 750.0, 750.0, 750.0, 751.0, 750.0, 750.0, 751.0, 750.0, 751.0, 751.0, 751.0, 751.0, 751.0, 751.0, 752.0, 751.0, 750.0, 750.0, 751.0, 751.0, 751.0, 750.0, 750.0, 750.0, 750.0, 750.0, 749.0, 750.0, 750.0, 750.0, 750.0, 750.0, 750.0, 751.0, 750.0, 750.0, 750.0, 750.0, 750.0, 750.0, 750.0, 750.0, 749.0, 749.0, 750.0, 751.0, 752.0, 751.0, 751.0, 751.0, 751.0, 751.0, 750.0, 750.0, 750.0, 750.0, 750.0, 749.0, 750.0, 751.0, 751.0, 751.0, 751.0, 751.0, 750.0, 750.0, 750.0, 750.0, 750.0, 750.0, 750.0, 749.0, 750.0, 750.0, 750.0, 750.0, 751.0, 750.0, 751.0, 751.0, 751.0, 751.0, 751.0, 750.0, 750.0, 750.0, 750.0, 751.0, 750.0, 750.0, 750.0, 750.0, 750.0, 751.0, 751.0, 751.0, 751.0],
      "WindowWidth": [1690.0, 1687.0, 1691.0, 1691.0, 1691.0, 1691.0, 1693.0, 1691.0, 1693.0, 1693.0, 1693.0, 1696.0, 1697.0, 1699.0, 1703.0, 1701.0, 1694.0, 1690.0, 1689.0, 1690.0, 1692.0, 1694.0, 1691.0, 1692.0, 1691.0, 1692.0, 1693.0, 1692.0, 1690.0, 1689.0, 1692.0, 1693.0, 1696.0, 1693.0, 1694.0, 1699.0, 1700.0, 1698.0, 1695.0, 1695.0, 1696.0, 1698.0, 1699.0, 1697.0, 1696.0, 1699.0, 1703.0, 1701.0, 1697.0, 1697.0, 1693.0, 1692.0, 1691.0, 1692.0, 1692.0, 1698.0, 1696.0, 1699.0, 1697.0, 1695.0, 1696.0, 1695.0, 1697.0, 1697.0, 1698.0, 1697.0, 1697.0, 1697.0, 1699.0, 1698.0, 1699.0, 1697.0, 1698.0, 1696.0, 1695.0, 1698.0, 1699.0, 1699.0, 1699.0, 1699.0, 1697.0, 1696.0, 1694.0, 1698.0, 1696.0, 1695.0, 1697.0, 1703.0, 1698.0, 1699.0, 1697.0, 1695.0, 1695.0, 1698.0, 1699.0, 1699.0, 1696.0, 1696.0, 1699.0, 1697.0, 1693.0, 1694.0, 1696.0, 1695.0, 1695.0, 1695.0, 1696.0, 1698.0, 1699.0, 1698.0, 1698.0, 1698.0, 1698.0, 1696.0, 1697.0, 1699.0, 1697.0, 1695.0, 1696.0, 1698.0, 1697.0, 1697.0, 1696.0, 1695.0, 1706.0, 1700.0, 1701.0, 1702.0, 1703.0, 1701.0, 1693.0, 1697.0, 1696.0, 1695.0, 1697.0, 1699.0, 1696.0, 1699.0, 1700.0, 1699.0, 1700.0, 1701.0, 1703.0, 1703.0, 1700.0, 1699.0, 1701.0, 1702.0, 1703.0, 1704.0, 1704.0, 1705.0, 1704.0, 1703.0, 1706.0, 1703.0, 1702.0, 1701.0, 1705.0, 1704.0, 1703.0, 1702.0, 1700.0, 1699.0, 1699.0, 1699.0, 1697.0, 1700.0, 1699.0, 1701.0, 1700.0, 1701.0, 1702.0, 1704.0, 1702.0, 1701.0, 1702.0, 1699.0, 1699.0, 1700.0, 1699.0, 1699.0, 1699.0, 1698.0, 1700.0, 1704.0, 1706.0, 1704.0, 1704.0, 1702.0, 1705.0, 1704.0, 1701.0, 1701.0, 1699.0, 1699.0, 1699.0, 1698.0, 1701.0, 1703.0, 1705.0, 1707.0, 1702.0, 1704.0, 1703.0, 1700.0, 1701.0, 1701.0, 1702.0, 1700.0, 1699.0, 1698.0, 1699.0, 1700.0, 1701.0, 1701.0, 1704.0, 1702.0, 1703.0, 1704.0, 1704.0, 1704.0, 1704.0, 1702.0, 1701.0, 1699.0, 1701.0, 1703.0, 1701.0, 1699.0, 1699.0, 1700.0, 1702.0, 1703.0, 1705.0, 1705.0, 1705.0]
    },
    "slices": {}
  }
}