{
  "AcquisitionMatrixPE": 70,
  "AcquisitionNumber": 1,
  "AcquisitionTime": "12:01:59.520000",
  "BandwidthPerPixelPhaseEncode": 38.873,
  "BaseResolution": 70,
  "BodyPartExamined": "HEAD",
  "ConsistencyInfo": "N4_VE11B_LATEST_20150530",
  "ConversionSoftware": "dcm2niix",
  "ConversionSoftwareVersion": "v1.0.20190410  GCC6.3.0",
  "DerivedVendorReportedEchoSpacing": 0.000489996,
  "DeviceSerialNumber": "66088",
  "DwellTime": 2.9e-06,
  "EchoTime": 0.03,
  "EchoTrainLength": 53,
  "EffectiveEchoSpacing": 0.000367497,
  "FlipAngle": 90,
  "ImageOrientationPatientDICOM": [0.999685, -0.000377934, 0.0250804, 0.00872414, 0.942699, -0.333532],
  "ImageType": [
    "ORIGINAL",
    "PRIMARY",
    "M",
    "ND",
    "NORM",
    "MOSAIC"
],
  "ImagingFrequency": 123.191,
  "InPlanePhaseEncodingDirectionDICOM": "COL",
  "InstitutionAddress": "Street_StreetNo_City_District_IR_ZIP",
  "InstitutionName": "Hospital",
  "InstitutionalDepartmentName": "Department",
  "MRAcquisitionType": "2D",
  "MagneticFieldStrength": 3,
  "Manufacturer": "Siemens",
  "ManufacturersModelName": "Prisma",
  "Modality": "MR",
  "ParallelReductionFactorInPlane": 2,
  "PartialFourier": 1,
  "PatientPosition": "HFS",
  "PercentPhaseFOV": 100,
  "PhaseEncodingDirection": "j-",
  "PhaseEncodingSteps": 105,
  "PhaseOversampling": 0.5,
  "PhaseResolution": 1,
  "PixelBandwidth": 2465,
  "ProcedureStepDescription": "SEARCH_KOHANPOUR_EILBEYGI",
  "ProtocolName": "ep2d_p2_Task_3.5_measurment:237",
  "PulseSequenceDetails": "%SiemensSeq%_ep2d_pace",
  "ReceiveCoilActiveElements": "HC1-7;NC1",
  "ReceiveCoilName": "HeadNeck_64",
  "ReconMatrixPE": 70,
  "RefLinesPE": 24,
  "RepetitionTime": 2,
  "SAR": 0.0744237,
  "ScanOptions": "FS",
  "ScanningSequence": "EP",
  "SequenceName": "_epfid2d1_70",
  "SequenceVariant": "SK_OSP",
  "SeriesDescription": "ep2d_p2_Task_3.5_measurment:237",
  "SeriesNumber": 10,
  "ShimSetting": [2511, -4337, -3237, 208, -146, 311, -146, 130],
  "SliceThickness": 3.5,
  "SliceTiming": [0.99, 0, 1.0475, 0.0575, 1.1075, 0.1175, 1.165, 0.175, 1.2225, 0.2325, 1.28, 0.29, 1.34, 0.35, 1.3975, 0.4075, 1.455, 0.465, 1.515, 0.525, 1.5725, 0.5825, 1.63, 0.64, 1.6875, 0.7, 1.7475, 0.7575, 1.805, 0.815, 1.8625, 0.8725, 1.9225, 0.9325],
  "SoftwareVersions": "syngo_MR_E11",
  "SpacingBetweenSlices": 3.85,
  "StationName": "AWP66088",
  "TaskName": "categorySelectivity",
  "TotalReadoutTime": 0.0253573,
  "TxRefAmp": 241.204,
  "dcmmeta_affine": [
    [-3.5417425632476807, 0.030908390879631042, 0.09054140001535416, 121.46082305908203],
    [0.0013389670057222247, 3.33984637260437, -1.2845348119735718, -93.73316955566406],
    [0.08885643631219864, 1.1816545724868774, 3.6282601356506348, -44.00533676147461],
    [0.0, 0.0, 0.0, 1.0]
],
  "dcmmeta_reorient_transform": [
    [0.0, -1.0, 0.0, 69.0],
    [1.0, 0.0, 0.0, 0.0],
    [0.0, 0.0, 1.0, 0.0],
    [0.0, 0.0, 0.0, 1.0]
],
  "dcmmeta_shape": [70, 70, 34, 237],
  "dcmmeta_slice_dim": 2,
  "dcmmeta_version": 0.6,
  "global": {
    "const": {
      "AcquisitionMatrix": [70, 0, 0, 70],
      "AngioFlag": "N",
      "BitsAllocated": 16,
      "BitsStored": 12,
      "BodyPartExamined": "HEAD",
      "Columns": 420,
      "EchoNumbers": 1,
      "EchoTime": 30.0,
      "EchoTrainLength": 53,
      "FlipAngle": 90.0,
      "HighBit": 11,
      "ImageOrientationPatient": [0.99968536470255, -0.0003779342299, 0.02508044587437, 0.00872414271927, 0.94269857385881, -0.3335315400054],
      "ImagePositionPatient": [-748.80739879159, -720.9550343289, 228.76851192569],
      "ImageType": [
        "ORIGINAL",
        "PRIMARY",
        "M",
        "ND",
        "NORM",
        "MOSAIC"
],
      "ImagedNucleus": "1H",
      "ImagingFrequency": 123.191117,
      "InPlanePhaseEncodingDirection": "COL",
      "MRAcquisitionType": "2D",
      "MagneticFieldStrength": 3.0,
      "Manufacturer": "SIEMENS",
      "ManufacturerModelName": "Prisma",
      "Modality": "MR",
      "NumberOfAverages": 1.0,
      "NumberOfPhaseEncodingSteps": 105,
      "PercentPhaseFieldOfView": 100.0,
      "PercentSampling": 100.0,
      "PerformedProcedureStepStartTime": "110914.857000",
      "PhotometricInterpretation": "MONOCHROME2",
      "PixelBandwidth": 2465.0,
      "PixelRepresentation": 0,
      "PixelSpacing": [3.542857170105, 3.542857170105],
      "ProtocolName": "ep2d_p2_Task_3.5_measurment:237",
      "RepetitionTime": 2000.0,
      "Rows": 420,
      "SAR": 0.07442370780456,
      "SamplesPerPixel": 1,
      "ScanOptions": "FS",
      "ScanningSequence": "EP",
      "SequenceName": "*epfid2d1_70",
      "SequenceVariant": [
        "SK",
        "OSP"
],
      "SeriesDescription": "ep2d_p2_Task_3.5_measurment:237",
      "SeriesNumber": 10,
      "SeriesTime": "120256.527000",
      "SliceLocation": -7.340795094479,
      "SliceThickness": 3.5,
      "SmallestImagePixelValue": 0,
      "SoftwareVersions": "syngo MR E11",
      "SpacingBetweenSlices": 3.849999906827,
      "SpecificCharacterSet": "ISO_IR 100",
      "StudyID": "1",
      "StudyTime": "110914.803000",
      "TransmitCoilName": "Body",
      "VariableFlipAngleFlag": "N",
      "WindowCenterWidthExplanation": "Algo1",
      "dBdt": 0.0},
    "slices": {}
  },
  "time": {
    "samples": {
      "AcquisitionNumber": [1, 2, 3, 4, 5, 6, 7, 8, 9, 10, 11, 12, 13, 14, 15, 16, 17, 18, 19, 20, 21, 22, 23, 24, 25, 26, 27, 28, 29, 30, 31, 32, 33, 34, 35, 36, 37, 38, 39, 40, 41, 42, 43, 44, 45, 46, 47, 48, 49, 50, 51, 52, 53, 54, 55, 56, 57, 58, 59, 60, 61, 62, 63, 64, 65, 66, 67, 68, 69, 70, 71, 72, 73, 74, 75, 76, 77, 78, 79, 80, 81, 82, 83, 84, 85, 86, 87, 88, 89, 90, 91, 92, 93, 94, 95, 96, 97, 98, 99, 100, 101, 102, 103, 104, 105, 106, 107, 108, 109, 110, 111, 112, 113, 114, 115, 116, 117, 118, 119, 120, 121, 122, 123, 124, 125, 126, 127, 128, 129, 130, 131, 132, 133, 134, 135, 136, 137, 138, 139, 140, 141, 142, 143, 144, 145, 146, 147, 148, 149, 150, 151, 152, 153, 154, 155, 156, 157, 158, 159, 160, 161, 162, 163, 164, 165, 166, 167, 168, 169, 170, 171, 172, 173, 174, 175, 176, 177, 178, 179, 180, 181, 182, 183, 184, 185, 186, 187, 188, 189, 190, 191, 192, 193, 194, 195, 196, 197, 198, 199, 200, 201, 202, 203, 204, 205, 206, 207, 208, 209, 210, 211, 212, 213, 214, 215, 216, 217, 218, 219, 220, 221, 222, 223, 224, 225, 226, 227, 228, 229, 230, 231, 232, 233, 234, 235, 236, 237],
      "AcquisitionTime": ["120159.520000", "120201.520000", "120203.520000", "120205.520000", "120207.520000", "120209.520000", "120211.520000", "120213.520000", "120215.520000", "120217.520000", "120219.520000", "120221.520000", "120223.520000", "120225.520000", "120227.520000", "120229.520000", "120231.520000", "120233.520000", "120235.520000", "120237.520000", "120239.520000", "120241.520000", "120243.520000", "120245.520000", "120247.520000", "120249.520000", "120251.520000", "120253.520000", "120255.520000", "120257.520000", "120259.520000", "120301.520000", "120303.520000", "120305.520000", "120307.520000", "120309.520000", "120311.520000", "120313.520000", "120315.520000", "120317.520000", "120319.520000", "120321.520000", "120323.520000", "120325.520000", "120327.520000", "120329.520000", "120331.520000", "120333.520000", "120335.520000", "120337.520000", "120339.520000", "120341.520000", "120343.520000", "120345.520000", "120347.520000", "120349.520000", "120351.520000", "120353.520000", "120355.520000", "120357.520000", "120359.520000", "120401.520000", "120403.520000", "120405.520000", "120407.520000", "120409.520000", "120411.520000", "120413.520000", "120415.520000", "120417.520000", "120419.520000", "120421.520000", "120423.520000", "120425.520000", "120427.520000", "120429.520000", "120431.520000", "120433.520000", "120435.520000", "120437.520000", "120439.520000", "120441.520000", "120443.520000", "120445.520000", "120447.520000", "120449.520000", "120451.520000", "120453.520000", "120455.520000", "120457.520000", "120459.520000", "120501.520000", "120503.520000", "120505.520000", "120507.520000", "120509.520000", "120511.520000", "120513.520000", "120515.520000", "120517.520000", "120519.520000", "120521.520000", "120523.520000", "120525.520000", "120527.520000", "120529.520000", "120531.520000", "120533.520000", "120535.520000", "120537.520000", "120539.520000", "120541.520000", "120543.520000", "120545.520000", "120547.520000", "120549.520000", "120551.520000", "120553.520000", "120555.520000", "120557.520000", "120559.520000", "120601.520000", "120603.520000", "120605.520000", "120607.520000", "120609.520000", "120611.520000", "120613.520000", "120615.520000", "120617.520000", "120619.520000", "120621.520000", "120623.520000", "120625.520000", "120627.520000", "120629.520000", "120631.520000", "120633.520000", "120635.520000", "120637.520000", "120639.520000", "120641.520000", "120643.520000", "120645.520000", "120647.520000", "120649.520000", "120651.520000", "120653.520000", "120655.520000", "120657.520000", "120659.520000", "120701.520000", "120703.520000", "120705.520000", "120707.520000", "120709.520000", "120711.520000", "120713.520000", "120715.520000", "120717.520000", "120719.520000", "120721.520000", "120723.520000", "120725.520000", "120727.520000", "120729.520000", "120731.520000", "120733.520000", "120735.520000", "120737.520000", "120739.520000", "120741.520000", "120743.520000", "120745.520000", "120747.520000", "120749.520000", "120751.520000", "120753.520000", "120755.520000", "120757.520000", "120759.520000", "120801.520000", "120803.520000", "120805.520000", "120807.520000", "120809.520000", "120811.520000", "120813.520000", "120815.520000", "120817.520000", "120819.520000", "120821.520000", "120823.520000", "120825.520000", "120827.520000", "120829.520000", "120831.520000", "120833.520000", "120835.520000", "120837.520000", "120839.520000", "120841.520000", "120843.520000", "120845.520000", "120847.520000", "120849.520000", "120851.520000", "120853.520000", "120855.520000", "120857.520000", "120859.520000", "120901.520000", "120903.520000", "120905.520000", "120907.520000", "120909.520000", "120911.520000", "120913.520000", "120915.520000", "120917.520000", "120919.520000", "120921.520000", "120923.520000", "120925.520000", "120927.520000", "120929.520000", "120931.520000", "120933.520000", "120935.520000", "120937.520000", "120939.520000", "120941.520000", "120943.520000", "120945.520000", "120947.520000", "120949.520000", "120951.520000"],
      "ContentTime": ["120256.531000", "120256.536000", "120256.539000", "120256.542000", "120256.545000", "120256.548000", "120256.551000", "120256.555000", "120256.558000", "120256.561000", "120256.564000", "120256.567000", "120256.570000", "120256.574000", "120256.577000", "120256.580000", "120256.583000", "120256.596000", "120256.599000", "120256.602000", "120256.609000", "120256.612000", "120256.615000", "120256.618000", "120256.621000", "120256.625000", "120256.635000", "120256.638000", "120336.526000", "120336.529000", "120336.533000", "120336.536000", "120336.539000", "120336.542000", "120336.545000", "120336.549000", "120336.552000", "120336.555000", "120336.558000", "120336.561000", "120336.565000", "120336.568000", "120336.571000", "120336.577000", "120336.580000", "120336.588000", "120336.591000", "120336.594000", "120416.526000", "120416.531000", "120416.534000", "120416.537000", "120416.540000", "120416.544000", "120416.547000", "120416.550000", "120416.553000", "120416.556000", "120416.559000", "120416.562000", "120416.565000", "120416.569000", "120416.572000", "120416.575000", "120416.578000", "120416.581000", "120416.585000", "120416.588000", "120456.527000", "120456.530000", "120456.533000", "120456.537000", "120456.540000", "120456.543000", "120456.546000", "120456.549000", "120456.552000", "120456.556000", "120456.559000", "120456.562000", "120456.565000", "120456.568000", "120456.572000", "120456.575000", "120456.578000", "120456.581000", "120456.584000", "120456.587000", "120536.526000", "120536.530000", "120536.539000", "120536.542000", "120536.545000", "120536.548000", "120536.552000", "120536.555000", "120536.558000", "120536.561000", "120536.564000", "120536.574000", "120536.577000", "120536.580000", "120536.583000", "120536.587000", "120536.590000", "120536.593000", "120536.596000", "120536.599000", "120616.526000", "120616.529000", "120616.537000", "120616.540000", "120616.543000", "120616.546000", "120616.549000", "120616.552000", "120616.555000", "120616.559000", "120616.562000", "120616.565000", "120616.568000", "120616.571000", "120616.575000", "120616.578000", "120616.581000", "120616.584000", "120616.587000", "120616.590000", "120656.527000", "120656.530000", "120656.533000", "120656.537000", "120656.540000", "120656.543000", "120656.546000", "120656.549000", "120656.552000", "120656.555000", "120656.559000", "120656.561000", "120656.565000", "120656.568000", "120656.571000", "120656.574000", "120656.577000", "120656.580000", "120656.583000", "120656.586000", "120736.526000", "120736.530000", "120736.533000", "120736.536000", "120736.539000", "120736.542000", "120736.546000", "120736.549000", "120736.552000", "120736.555000", "120736.558000", "120736.561000", "120736.565000", "120736.569000", "120736.573000", "120736.576000", "120736.579000", "120736.582000", "120736.586000", "120736.590000", "120816.528000", "120816.533000", "120816.536000", "120816.539000", "120816.542000", "120816.545000", "120816.549000", "120816.552000", "120816.555000", "120816.558000", "120816.561000", "120816.564000", "120816.567000", "120816.571000", "120816.574000", "120816.577000", "120816.580000", "120816.583000", "120816.586000", "120816.590000", "120856.526000", "120856.529000", "120856.533000", "120856.536000", "120856.539000", "120856.542000", "120856.545000", "120856.548000", "120856.552000", "120856.555000", "120856.558000", "120856.561000", "120856.564000", "120856.568000", "120856.572000", "120856.575000", "120856.578000", "120856.592000", "120856.595000", "120856.598000", "120936.527000", "120936.531000", "120936.534000", "120936.537000", "120936.540000", "120936.543000", "120936.547000", "120936.550000", "120936.553000", "120936.556000", "120936.560000", "120936.563000", "120936.566000", "120936.569000", "120936.572000", "120936.575000", "120936.579000", "120936.582000", "120936.585000", "120936.588000", "120953.271000", "120953.286000", "120953.288000", "120953.290000", "120953.293000", "120953.296000", "120953.298000", "120953.300000", "120953.303000"],
      "InstanceCreationTime": ["120256.531000", "120256.536000", "120256.539000", "120256.542000", "120256.545000", "120256.548000", "120256.551000", "120256.555000", "120256.558000", "120256.561000", "120256.564000", "120256.567000", "120256.570000", "120256.574000", "120256.577000", "120256.580000", "120256.583000", "120256.596000", "120256.599000", "120256.602000", "120256.609000", "120256.612000", "120256.615000", "120256.618000", "120256.621000", "120256.625000", "120256.635000", "120256.638000", "120336.526000", "120336.529000", "120336.533000", "120336.536000", "120336.539000", "120336.542000", "120336.545000", "120336.549000", "120336.552000", "120336.555000", "120336.558000", "120336.561000", "120336.565000", "120336.568000", "120336.571000", "120336.577000", "120336.580000", "120336.588000", "120336.591000", "120336.594000", "120416.526000", "120416.531000", "120416.534000", "120416.537000", "120416.540000", "120416.544000", "120416.547000", "120416.550000", "120416.553000", "120416.556000", "120416.559000", "120416.562000", "120416.565000", "120416.569000", "120416.572000", "120416.575000", "120416.578000", "120416.581000", "120416.585000", "120416.588000", "120456.527000", "120456.530000", "120456.533000", "120456.537000", "120456.540000", "120456.543000", "120456.546000", "120456.549000", "120456.552000", "120456.556000", "120456.559000", "120456.562000", "120456.565000", "120456.568000", "120456.572000", "120456.575000", "120456.578000", "120456.581000", "120456.584000", "120456.587000", "120536.526000", "120536.530000", "120536.539000", "120536.542000", "120536.545000", "120536.548000", "120536.552000", "120536.555000", "120536.558000", "120536.561000", "120536.564000", "120536.574000", "120536.577000", "120536.580000", "120536.583000", "120536.587000", "120536.590000", "120536.593000", "120536.596000", "120536.599000", "120616.526000", "120616.529000", "120616.537000", "120616.540000", "120616.543000", "120616.546000", "120616.549000", "120616.552000", "120616.555000", "120616.559000", "120616.562000", "120616.565000", "120616.568000", "120616.571000", "120616.575000", "120616.578000", "120616.581000", "120616.584000", "120616.587000", "120616.590000", "120656.527000", "120656.530000", "120656.533000", "120656.537000", "120656.540000", "120656.543000", "120656.546000", "120656.549000", "120656.552000", "120656.555000", "120656.559000", "120656.561000", "120656.565000", "120656.568000", "120656.571000", "120656.574000", "120656.577000", "120656.580000", "120656.583000", "120656.586000", "120736.526000", "120736.530000", "120736.533000", "120736.536000", "120736.539000", "120736.542000", "120736.546000", "120736.549000", "120736.552000", "120736.555000", "120736.558000", "120736.561000", "120736.565000", "120736.569000", "120736.573000", "120736.576000", "120736.579000", "120736.582000", "120736.586000", "120736.590000", "120816.528000", "120816.533000", "120816.536000", "120816.539000", "120816.542000", "120816.545000", "120816.549000", "120816.552000", "120816.555000", "120816.558000", "120816.561000", "120816.564000", "120816.567000", "120816.571000", "120816.574000", "120816.577000", "120816.580000", "120816.583000", "120816.586000", "120816.590000", "120856.526000", "120856.529000", "120856.533000", "120856.536000", "120856.539000", "120856.542000", "120856.545000", "120856.548000", "120856.552000", "120856.555000", "120856.558000", "120856.561000", "120856.564000", "120856.568000", "120856.572000", "120856.575000", "120856.578000", "120856.592000", "120856.595000", "120856.598000", "120936.527000", "120936.531000", "120936.534000", "120936.537000", "120936.540000", "120936.543000", "120936.547000", "120936.550000", "120936.553000", "120936.556000", "120936.560000", "120936.563000", "120936.566000", "120936.569000", "120936.572000", "120936.575000", "120936.579000", "120936.582000", "120936.585000", "120936.588000", "120953.271000", "120953.286000", "120953.288000", "120953.290000", "120953.293000", "120953.296000", "120953.298000", "120953.300000", "120953.303000"],
      "InstanceNumber": [1, 2, 3, 4, 5, 6, 7, 8, 9, 10, 11, 12, 13, 14, 15, 16, 17, 18, 19, 20, 21, 22, 23, 24, 25, 26, 27, 28, 29, 30, 31, 32, 33, 34, 35, 36, 37, 38, 39, 40, 41, 42, 43, 44, 45, 46, 47, 48, 49, 50, 51, 52, 53, 54, 55, 56, 57, 58, 59, 60, 61, 62, 63, 64, 65, 66, 67, 68, 69, 70, 71, 72, 73, 74, 75, 76, 77, 78, 79, 80, 81, 82, 83, 84, 85, 86, 87, 88, 89, 90, 91, 92, 93, 94, 95, 96, 97, 98, 99, 100, 101, 102, 103, 104, 105, 106, 107, 108, 109, 110, 111, 112, 113, 114, 115, 116, 117, 118, 119, 120, 121, 122, 123, 124, 125, 126, 127, 128, 129, 130, 131, 132, 133, 134, 135, 136, 137, 138, 139, 140, 141, 142, 143, 144, 145, 146, 147, 148, 149, 150, 151, 152, 153, 154, 155, 156, 157, 158, 159, 160, 161, 162, 163, 164, 165, 166, 167, 168, 169, 170, 171, 172, 173, 174, 175, 176, 177, 178, 179, 180, 181, 182, 183, 184, 185, 186, 187, 188, 189, 190, 191, 192, 193, 194, 195, 196, 197, 198, 199, 200, 201, 202, 203, 204, 205, 206, 207, 208, 209, 210, 211, 212, 213, 214, 215, 216, 217, 218, 219, 220, 221, 222, 223, 224, 225, 226, 227, 228, 229, 230, 231, 232, 233, 234, 235, 236, 237],
      "LargestImagePixelValue": [2085, 2034, 2286, 2007, 1976, 1955, 2088, 2063, 1995, 2219, 2158, 2092, 1972, 1969, 2042, 1960, 2182, 1976, 2119, 1964, 2228, 1971, 2375, 2067, 2371, 1967, 2065, 2304, 1996, 2001, 2029, 2018, 2164, 2038, 2009, 1971, 2350, 2257, 2418, 2407, 1994, 2011, 2016, 2011, 2183, 1959, 1964, 1914, 2012, 1961, 2639, 2188, 2615, 1943, 2599, 1995, 2025, 2010, 1970, 2005, 1994, 1992, 1998, 1995, 2024, 2016, 2016, 2042, 2014, 2069, 2246, 1987, 2084, 1978, 1981, 2062, 2015, 2535, 2000, 1997, 1989, 2021, 2450, 2038, 2005, 2018, 2000, 2002, 2560, 2055, 1986, 1990, 2022, 1966, 2030, 2285, 2054, 2044, 1992, 2033, 1992, 2015, 2053, 2032, 2006, 2034, 2049, 1999, 2036, 2011, 2008, 2073, 2032, 2022, 2024, 2019, 2028, 1995, 2020, 2044, 2067, 2031, 2031, 2007, 2146, 2029, 2066, 2008, 2396, 2021, 2029, 2044, 2317, 2497, 2039, 2005, 2018, 2041, 1997, 2120, 2129, 2016, 2027, 2200, 2091, 2156, 2025, 2037, 2031, 2137, 2021, 2043, 2077, 1991, 2130, 2026, 2059, 2022, 1983, 2090, 2019, 2050, 2078, 2081, 2020, 2081, 2334, 2078, 2014, 2358, 2036, 2067, 2365, 2088, 2067, 2219, 2022, 2079, 2045, 2118, 2046, 2016, 2090, 2085, 2047, 2280, 2092, 2345, 2249, 2037, 2077, 2019, 2115, 2043, 1989, 2004, 2057, 2014, 2035, 2140, 2149, 2012, 1986, 2067, 2008, 2049, 2075, 2001, 2037, 2110, 2037, 2032, 2137, 2040, 2009, 2007, 2056, 2048, 2305, 2074, 2107, 2012, 2070, 2062, 2116, 2006, 2017, 2078, 2052, 2185, 2200, 2069, 2081, 2126, 2251, 2417, 2027],
      "WindowCenter": [752.0, 751.0, 750.0, 751.0, 751.0, 751.0, 751.0, 750.0, 751.0, 752.0, 751.0, 750.0, 751.0, 751.0, 750.0, 750.0, 751.0, 750.0, 751.0, 751.0, 751.0, 750.0, 751.0, 751.0, 750.0, 751.0, 752.0, 751.0, 750.0, 751.0, 752.0, 752.0, 752.0, 752.0, 752.0, 752.0, 752.0, 751.0, 751.0, 751.0, 750.0, 750.0, 750.0, 751.0, 752.0, 752.0, 751.0, 752.0, 753.0, 752.0, 753.0, 752.0, 751.0, 750.0, 748.0, 747.0, 748.0, 749.0, 749.0, 750.0, 751.0, 751.0, 752.0, 751.0, 752.0, 752.0, 753.0, 753.0, 753.0, 752.0, 753.0, 752.0, 753.0, 753.0, 754.0, 754.0, 754.0, 753.0, 752.0, 752.0, 752.0, 752.0, 752.0, 752.0, 753.0, 753.0, 753.0, 752.0, 753.0, 752.0, 752.0, 752.0, 751.0, 751.0, 752.0, 752.0, 752.0, 752.0, 751.0, 753.0, 752.0, 752.0, 752.0, 753.0, 753.0, 753.0, 752.0, 752.0, 752.0, 752.0, 752.0, 752.0, 751.0, 752.0, 752.0, 752.0, 752.0, 751.0, 751.0, 751.0, 752.0, 752.0, 752.0, 752.0, 752.0, 752.0, 752.0, 752.0, 752.0, 751.0, 752.0, 753.0, 753.0, 752.0, 751.0, 751.0, 751.0, 751.0, 752.0, 753.0, 752.0, 751.0, 751.0, 751.0, 750.0, 750.0, 750.0, 751.0, 751.0, 751.0, 752.0, 752.0, 751.0, 752.0, 752.0, 751.0, 751.0, 752.0, 751.0, 751.0, 752.0, 751.0, 752.0, 752.0, 752.0, 752.0, 751.0, 751.0, 752.0, 752.0, 751.0, 752.0, 751.0, 750.0, 751.0, 752.0, 752.0, 753.0, 752.0, 752.0, 751.0, 751.0, 751.0, 751.0, 751.0, 751.0, 752.0, 751.0, 750.0, 750.0, 750.0, 750.0, 750.0, 751.0, 751.0, 751.0, 752.0, 751.0, 750.0, 750.0, 749.0, 749.0, 750.0, 752.0, 751.0, 751.0, 751.0, 751.0, 751.0, 751.0, 752.0, 752.0, 752.0, 752.0, 752.0, 751.0, 751.0, 751.0, 751.0, 750.0, 751.0, 751.0, 750.0, 750.0, 751.0, 751.0, 750.0, 751.0, 751.0, 752.0, 751.0, 752.0, 752.0, 752.0, 751.0, 750.0, 748.0],
      "WindowWidth": [1703.0, 1700.0, 1700.0, 1700.0, 1701.0, 1701.0, 1700.0, 1698.0, 1702.0, 1705.0, 1700.0, 1697.0, 1699.0, 1700.0, 1699.0, 1698.0, 1702.0, 1698.0, 1700.0, 1701.0, 1701.0, 1695.0, 1700.0, 1701.0, 1701.0, 1701.0, 1703.0, 1702.0, 1698.0, 1699.0, 1703.0, 1705.0, 1703.0, 1703.0, 1706.0, 1705.0, 1706.0, 1701.0, 1703.0, 1703.0, 1697.0, 1696.0, 1697.0, 1700.0, 1703.0, 1704.0, 1701.0, 1703.0, 1706.0, 1705.0, 1707.0, 1705.0, 1703.0, 1694.0, 1691.0, 1684.0, 1689.0, 1693.0, 1693.0, 1697.0, 1698.0, 1698.0, 1700.0, 1701.0, 1702.0, 1704.0, 1705.0, 1705.0, 1705.0, 1704.0, 1708.0, 1702.0, 1705.0, 1706.0, 1710.0, 1709.0, 1708.0, 1707.0, 1701.0, 1704.0, 1703.0, 1704.0, 1706.0, 1703.0, 1706.0, 1705.0, 1704.0, 1702.0, 1707.0, 1705.0, 1703.0, 1702.0, 1700.0, 1699.0, 1704.0, 1705.0, 1701.0, 1702.0, 1701.0, 1705.0, 1704.0, 1702.0, 1703.0, 1706.0, 1707.0, 1706.0, 1705.0, 1703.0, 1702.0, 1704.0, 1704.0, 1702.0, 1701.0, 1703.0, 1705.0, 1702.0, 1702.0, 1700.0, 1701.0, 1701.0, 1702.0, 1704.0, 1703.0, 1703.0, 1704.0, 1701.0, 1703.0, 1704.0, 1706.0, 1701.0, 1702.0, 1706.0, 1707.0, 1705.0, 1700.0, 1700.0, 1699.0, 1701.0, 1703.0, 1709.0, 1704.0, 1699.0, 1701.0, 1702.0, 1698.0, 1696.0, 1698.0, 1700.0, 1699.0, 1701.0, 1702.0, 1703.0, 1701.0, 1704.0, 1704.0, 1700.0, 1701.0, 1703.0, 1700.0, 1702.0, 1702.0, 1702.0, 1702.0, 1703.0, 1704.0, 1704.0, 1703.0, 1703.0, 1703.0, 1704.0, 1700.0, 1703.0, 1702.0, 1697.0, 1701.0, 1706.0, 1704.0, 1707.0, 1705.0, 1703.0, 1701.0, 1700.0, 1700.0, 1701.0, 1700.0, 1701.0, 1703.0, 1701.0, 1698.0, 1697.0, 1698.0, 1697.0, 1698.0, 1701.0, 1701.0, 1702.0, 1704.0, 1700.0, 1698.0, 1696.0, 1694.0, 1694.0, 1698.0, 1704.0, 1701.0, 1699.0, 1699.0, 1699.0, 1699.0, 1699.0, 1702.0, 1705.0, 1704.0, 1703.0, 1703.0, 1702.0, 1700.0, 1699.0, 1701.0, 1698.0, 1700.0, 1699.0, 1698.0, 1697.0, 1701.0, 1699.0, 1697.0, 1699.0, 1701.0, 1704.0, 1701.0, 1704.0, 1704.0, 1703.0, 1700.0, 1695.0, 1690.0]
    },
    "slices": {}
  }
}