{
  "AcquisitionMatrixPE": 70,
  "AcquisitionNumber": 1,
  "AcquisitionTime": "11:53:40.805000",
  "BandwidthPerPixelPhaseEncode": 38.873,
  "BaseResolution": 70,
  "BodyPartExamined": "HEAD",
  "ConsistencyInfo": "N4_VE11B_LATEST_20150530",
  "ConversionSoftware": "dcm2niix",
  "ConversionSoftwareVersion": "v1.0.20190410  GCC6.3.0",
  "DerivedVendorReportedEchoSpacing": 0.000489996,
  "DeviceSerialNumber": "66088",
  "DwellTime": 2.9e-06,
  "EchoTime": 0.03,
  "EchoTrainLength": 53,
  "EffectiveEchoSpacing": 0.000367497,
  "FlipAngle": 90,
  "ImageOrientationPatientDICOM": [0.999685, -0.000377934, 0.0250804, 0.00872414, 0.942699, -0.333532],
  "ImageType": [
    "ORIGINAL",
    "PRIMARY",
    "M",
    "ND",
    "NORM",
    "MOSAIC"
],
  "ImagingFrequency": 123.191,
  "InPlanePhaseEncodingDirectionDICOM": "COL",
  "InstitutionAddress": "Street_StreetNo_City_District_IR_ZIP",
  "InstitutionName": "Hospital",
  "InstitutionalDepartmentName": "Department",
  "MRAcquisitionType": "2D",
  "MagneticFieldStrength": 3,
  "Manufacturer": "Siemens",
  "ManufacturersModelName": "Prisma",
  "Modality": "MR",
  "ParallelReductionFactorInPlane": 2,
  "PartialFourier": 1,
  "PatientPosition": "HFS",
  "PercentPhaseFOV": 100,
  "PhaseEncodingDirection": "j-",
  "PhaseEncodingSteps": 105,
  "PhaseOversampling": 0.5,
  "PhaseResolution": 1,
  "PixelBandwidth": 2465,
  "ProcedureStepDescription": "SEARCH_KOHANPOUR_EILBEYGI",
  "ProtocolName": "ep2d_p2_Task_3.5_measurment:237",
  "PulseSequenceDetails": "%SiemensSeq%_ep2d_pace",
  "ReceiveCoilActiveElements": "HC1-7;NC1",
  "ReceiveCoilName": "HeadNeck_64",
  "ReconMatrixPE": 70,
  "RefLinesPE": 24,
  "RepetitionTime": 2,
  "SAR": 0.0744237,
  "ScanOptions": "FS",
  "ScanningSequence": "EP",
  "SequenceName": "_epfid2d1_70",
  "SequenceVariant": "SK_OSP",
  "SeriesDescription": "ep2d_p2_Task_3.5_measurment:237",
  "SeriesNumber": 9,
  "ShimSetting": [2511, -4337, -3237, 208, -146, 311, -146, 130],
  "SliceThickness": 3.5,
  "SliceTiming": [0.99, 0, 1.0475, 0.0575, 1.1075, 0.1175, 1.165, 0.175, 1.2225, 0.2325, 1.2825, 0.2925, 1.34, 0.35, 1.3975, 0.4075, 1.455, 0.465, 1.515, 0.525, 1.5725, 0.5825, 1.63, 0.64, 1.69, 0.7, 1.7475, 0.7575, 1.805, 0.815, 1.8625, 0.8725, 1.9225, 0.9325],
  "SoftwareVersions": "syngo_MR_E11",
  "SpacingBetweenSlices": 3.85,
  "StationName": "AWP66088",
  "TaskName": "categorySelectivity",
  "TotalReadoutTime": 0.0253573,
  "TxRefAmp": 241.204,
  "dcmmeta_affine": [
    [-3.5417425632476807, 0.030908390879631042, 0.09054140001535416, 121.46082305908203],
    [0.0013389670057222247, 3.33984637260437, -1.2845348119735718, -93.73316955566406],
    [0.08885643631219864, 1.1816545724868774, 3.6282601356506348, -44.00533676147461],
    [0.0, 0.0, 0.0, 1.0]
],
  "dcmmeta_reorient_transform": [
    [0.0, -1.0, 0.0, 69.0],
    [1.0, 0.0, 0.0, 0.0],
    [0.0, 0.0, 1.0, 0.0],
    [0.0, 0.0, 0.0, 1.0]
],
  "dcmmeta_shape": [70, 70, 34, 237],
  "dcmmeta_slice_dim": 2,
  "dcmmeta_version": 0.6,
  "global": {
    "const": {
      "AcquisitionMatrix": [70, 0, 0, 70],
      "AngioFlag": "N",
      "BitsAllocated": 16,
      "BitsStored": 12,
      "BodyPartExamined": "HEAD",
      "Columns": 420,
      "EchoNumbers": 1,
      "EchoTime": 30.0,
      "EchoTrainLength": 53,
      "FlipAngle": 90.0,
      "HighBit": 11,
      "ImageOrientationPatient": [0.99968536470255, -0.0003779342299, 0.02508044587437, 0.00872414271927, 0.94269857385881, -0.3335315400054],
      "ImagePositionPatient": [-748.80739879159, -720.9550343289, 228.76851192569],
      "ImageType": [
        "ORIGINAL",
        "PRIMARY",
        "M",
        "ND",
        "NORM",
        "MOSAIC"
],
      "ImagedNucleus": "1H",
      "ImagingFrequency": 123.191115,
      "InPlanePhaseEncodingDirection": "COL",
      "MRAcquisitionType": "2D",
      "MagneticFieldStrength": 3.0,
      "Manufacturer": "SIEMENS",
      "ManufacturerModelName": "Prisma",
      "Modality": "MR",
      "NumberOfAverages": 1.0,
      "NumberOfPhaseEncodingSteps": 105,
      "PercentPhaseFieldOfView": 100.0,
      "PercentSampling": 100.0,
      "PerformedProcedureStepStartTime": "110914.857000",
      "PhotometricInterpretation": "MONOCHROME2",
      "PixelBandwidth": 2465.0,
      "PixelRepresentation": 0,
      "PixelSpacing": [3.542857170105, 3.542857170105],
      "ProtocolName": "ep2d_p2_Task_3.5_measurment:237",
      "RepetitionTime": 2000.0,
      "Rows": 420,
      "SAR": 0.07442370780456,
      "SamplesPerPixel": 1,
      "ScanOptions": "FS",
      "ScanningSequence": "EP",
      "SequenceName": "*epfid2d1_70",
      "SequenceVariant": [
        "SK",
        "OSP"
],
      "SeriesDescription": "ep2d_p2_Task_3.5_measurment:237",
      "SeriesNumber": 9,
      "SeriesTime": "115348.160000",
      "SliceLocation": -7.340795094479,
      "SliceThickness": 3.5,
      "SmallestImagePixelValue": 0,
      "SoftwareVersions": "syngo MR E11",
      "SpacingBetweenSlices": 3.849999906827,
      "SpecificCharacterSet": "ISO_IR 100",
      "StudyID": "1",
      "StudyTime": "110914.803000",
      "TransmitCoilName": "Body",
      "VariableFlipAngleFlag": "N",
      "WindowCenterWidthExplanation": "Algo1",
      "dBdt": 0.0},
    "slices": {}
  },
  "time": {
    "samples": {
      "AcquisitionNumber": [1, 2, 3, 4, 5, 6, 7, 8, 9, 10, 11, 12, 13, 14, 15, 16, 17, 18, 19, 20, 21, 22, 23, 24, 25, 26, 27, 28, 29, 30, 31, 32, 33, 34, 35, 36, 37, 38, 39, 40, 41, 42, 43, 44, 45, 46, 47, 48, 49, 50, 51, 52, 53, 54, 55, 56, 57, 58, 59, 60, 61, 62, 63, 64, 65, 66, 67, 68, 69, 70, 71, 72, 73, 74, 75, 76, 77, 78, 79, 80, 81, 82, 83, 84, 85, 86, 87, 88, 89, 90, 91, 92, 93, 94, 95, 96, 97, 98, 99, 100, 101, 102, 103, 104, 105, 106, 107, 108, 109, 110, 111, 112, 113, 114, 115, 116, 117, 118, 119, 120, 121, 122, 123, 124, 125, 126, 127, 128, 129, 130, 131, 132, 133, 134, 135, 136, 137, 138, 139, 140, 141, 142, 143, 144, 145, 146, 147, 148, 149, 150, 151, 152, 153, 154, 155, 156, 157, 158, 159, 160, 161, 162, 163, 164, 165, 166, 167, 168, 169, 170, 171, 172, 173, 174, 175, 176, 177, 178, 179, 180, 181, 182, 183, 184, 185, 186, 187, 188, 189, 190, 191, 192, 193, 194, 195, 196, 197, 198, 199, 200, 201, 202, 203, 204, 205, 206, 207, 208, 209, 210, 211, 212, 213, 214, 215, 216, 217, 218, 219, 220, 221, 222, 223, 224, 225, 226, 227, 228, 229, 230, 231, 232, 233, 234, 235, 236, 237],
      "AcquisitionTime": ["115340.805000", "115342.805000", "115344.805000", "115346.805000", "115348.805000", "115350.805000", "115352.805000", "115354.805000", "115356.805000", "115358.805000", "115400.805000", "115402.805000", "115404.805000", "115406.805000", "115408.805000", "115410.805000", "115412.805000", "115414.805000", "115416.805000", "115418.805000", "115420.805000", "115422.805000", "115424.805000", "115426.805000", "115428.805000", "115430.805000", "115432.805000", "115434.805000", "115436.805000", "115438.805000", "115440.805000", "115442.805000", "115444.805000", "115446.805000", "115448.805000", "115450.805000", "115452.805000", "115454.805000", "115456.805000", "115458.805000", "115500.805000", "115502.805000", "115504.805000", "115506.805000", "115508.805000", "115510.805000", "115512.805000", "115514.805000", "115516.805000", "115518.805000", "115520.805000", "115522.805000", "115524.805000", "115526.805000", "115528.805000", "115530.805000", "115532.805000", "115534.805000", "115536.805000", "115538.805000", "115540.805000", "115542.805000", "115544.805000", "115546.805000", "115548.805000", "115550.805000", "115552.805000", "115554.805000", "115556.805000", "115558.805000", "115600.805000", "115602.805000", "115604.805000", "115606.805000", "115608.805000", "115610.805000", "115612.805000", "115614.805000", "115616.805000", "115618.805000", "115620.805000", "115622.805000", "115624.805000", "115626.805000", "115628.805000", "115630.805000", "115632.805000", "115634.805000", "115636.805000", "115638.805000", "115640.805000", "115642.805000", "115644.805000", "115646.805000", "115648.805000", "115650.805000", "115652.805000", "115654.805000", "115656.805000", "115658.805000", "115700.805000", "115702.805000", "115704.805000", "115706.805000", "115708.805000", "115710.805000", "115712.805000", "115714.805000", "115716.805000", "115718.805000", "115720.805000", "115722.805000", "115724.805000", "115726.805000", "115728.805000", "115730.805000", "115732.805000", "115734.805000", "115736.805000", "115738.805000", "115740.805000", "115742.805000", "115744.805000", "115746.805000", "115748.805000", "115750.805000", "115752.805000", "115754.805000", "115756.805000", "115758.805000", "115800.805000", "115802.805000", "115804.805000", "115806.805000", "115808.805000", "115810.805000", "115812.805000", "115814.805000", "115816.805000", "115818.805000", "115820.805000", "115822.805000", "115824.805000", "115826.805000", "115828.805000", "115830.805000", "115832.805000", "115834.805000", "115836.805000", "115838.805000", "115840.805000", "115842.805000", "115844.805000", "115846.805000", "115848.805000", "115850.805000", "115852.805000", "115854.805000", "115856.805000", "115858.805000", "115900.805000", "115902.805000", "115904.805000", "115906.805000", "115908.805000", "115910.805000", "115912.805000", "115914.805000", "115916.805000", "115918.805000", "115920.805000", "115922.805000", "115924.805000", "115926.805000", "115928.805000", "115930.805000", "115932.805000", "115934.805000", "115936.805000", "115938.805000", "115940.805000", "115942.805000", "115944.805000", "115946.805000", "115948.805000", "115950.805000", "115952.805000", "115954.805000", "115956.805000", "115958.805000", "120000.805000", "120002.805000", "120004.805000", "120006.805000", "120008.805000", "120010.805000", "120012.805000", "120014.805000", "120016.805000", "120018.805000", "120020.805000", "120022.805000", "120024.805000", "120026.805000", "120028.805000", "120030.805000", "120032.805000", "120034.805000", "120036.805000", "120038.805000", "120040.805000", "120042.805000", "120044.805000", "120046.805000", "120048.805000", "120050.805000", "120052.805000", "120054.805000", "120056.805000", "120058.805000", "120100.805000", "120102.805000", "120104.805000", "120106.805000", "120108.805000", "120110.805000", "120112.805000", "120114.805000", "120116.805000", "120118.805000", "120120.805000", "120122.805000", "120124.805000", "120126.805000", "120128.805000", "120130.805000", "120132.805000"],
      "ContentTime": ["115348.164000", "115348.169000", "115348.172000", "115348.175000", "115428.159000", "115428.162000", "115428.164000", "115428.167000", "115428.169000", "115428.171000", "115428.174000", "115428.185000", "115428.187000", "115428.190000", "115428.192000", "115428.194000", "115428.197000", "115428.199000", "115428.202000", "115428.204000", "115428.206000", "115428.209000", "115428.211000", "115428.214000", "115508.159000", "115508.163000", "115508.167000", "115508.170000", "115508.173000", "115508.176000", "115508.179000", "115508.182000", "115508.186000", "115508.189000", "115508.192000", "115508.195000", "115508.199000", "115508.202000", "115508.205000", "115508.211000", "115508.214000", "115508.217000", "115508.220000", "115508.223000", "115548.159000", "115548.175000", "115548.178000", "115548.182000", "115548.185000", "115548.188000", "115548.191000", "115548.194000", "115548.197000", "115548.200000", "115548.203000", "115548.207000", "115548.210000", "115548.213000", "115548.234000", "115548.237000", "115548.240000", "115548.243000", "115548.246000", "115548.249000", "115628.159000", "115628.162000", "115628.165000", "115628.168000", "115628.171000", "115628.174000", "115628.177000", "115628.180000", "115628.184000", "115628.187000", "115628.190000", "115628.193000", "115628.196000", "115628.199000", "115628.202000", "115628.205000", "115628.208000", "115628.211000", "115628.214000", "115628.217000", "115708.159000", "115708.164000", "115708.167000", "115708.170000", "115708.173000", "115708.176000", "115708.179000", "115708.182000", "115708.185000", "115708.188000", "115708.191000", "115708.194000", "115708.198000", "115708.201000", "115708.204000", "115708.207000", "115708.210000", "115708.213000", "115708.216000", "115708.219000", "115748.159000", "115748.162000", "115748.165000", "115748.168000", "115748.172000", "115748.175000", "115748.178000", "115748.181000", "115748.184000", "115748.187000", "115748.190000", "115748.193000", "115748.196000", "115748.199000", "115748.203000", "115748.206000", "115748.209000", "115748.212000", "115748.215000", "115748.218000", "115828.159000", "115828.162000", "115828.165000", "115828.168000", "115828.175000", "115828.179000", "115828.182000", "115828.185000", "115828.188000", "115828.191000", "115828.194000", "115828.197000", "115828.200000", "115828.203000", "115828.207000", "115828.210000", "115828.213000", "115828.216000", "115828.219000", "115828.222000", "115908.160000", "115908.163000", "115908.166000", "115908.169000", "115908.172000", "115908.176000", "115908.179000", "115908.182000", "115908.185000", "115908.188000", "115908.191000", "115908.194000", "115908.197000", "115908.200000", "115908.203000", "115908.207000", "115908.210000", "115908.213000", "115908.216000", "115908.219000", "115948.159000", "115948.162000", "115948.165000", "115948.169000", "115948.172000", "115948.175000", "115948.178000", "115948.181000", "115948.184000", "115948.187000", "115948.190000", "115948.193000", "115948.197000", "115948.200000", "115948.203000", "115948.206000", "115948.209000", "115948.212000", "115948.215000", "115948.218000", "120028.159000", "120028.162000", "120028.165000", "120028.168000", "120028.172000", "120028.175000", "120028.178000", "120028.181000", "120028.184000", "120028.187000", "120028.190000", "120028.193000", "120028.196000", "120028.200000", "120028.203000", "120028.206000", "120028.209000", "120028.212000", "120028.215000", "120028.218000", "120108.160000", "120108.164000", "120108.180000", "120108.198000", "120108.206000", "120108.209000", "120108.213000", "120108.219000", "120108.223000", "120108.228000", "120108.231000", "120108.235000", "120108.238000", "120108.241000", "120108.244000", "120108.247000", "120108.250000", "120108.254000", "120108.257000", "120108.260000", "120134.076000", "120134.079000", "120134.082000", "120134.084000", "120134.087000", "120134.089000", "120134.092000", "120134.095000", "120134.097000", "120134.100000", "120134.102000", "120134.105000", "120134.107000"],
      "InstanceCreationTime": ["115348.164000", "115348.169000", "115348.172000", "115348.175000", "115428.159000", "115428.162000", "115428.164000", "115428.167000", "115428.169000", "115428.171000", "115428.174000", "115428.185000", "115428.187000", "115428.190000", "115428.192000", "115428.194000", "115428.197000", "115428.199000", "115428.202000", "115428.204000", "115428.206000", "115428.209000", "115428.211000", "115428.214000", "115508.159000", "115508.163000", "115508.167000", "115508.170000", "115508.173000", "115508.176000", "115508.179000", "115508.182000", "115508.186000", "115508.189000", "115508.192000", "115508.195000", "115508.199000", "115508.202000", "115508.205000", "115508.211000", "115508.214000", "115508.217000", "115508.220000", "115508.223000", "115548.159000", "115548.175000", "115548.178000", "115548.182000", "115548.185000", "115548.188000", "115548.191000", "115548.194000", "115548.197000", "115548.200000", "115548.203000", "115548.207000", "115548.210000", "115548.213000", "115548.234000", "115548.237000", "115548.240000", "115548.243000", "115548.246000", "115548.249000", "115628.159000", "115628.162000", "115628.165000", "115628.168000", "115628.171000", "115628.174000", "115628.177000", "115628.180000", "115628.184000", "115628.187000", "115628.190000", "115628.193000", "115628.196000", "115628.199000", "115628.202000", "115628.205000", "115628.208000", "115628.211000", "115628.214000", "115628.217000", "115708.159000", "115708.164000", "115708.167000", "115708.170000", "115708.173000", "115708.176000", "115708.179000", "115708.182000", "115708.185000", "115708.188000", "115708.191000", "115708.194000", "115708.198000", "115708.201000", "115708.204000", "115708.207000", "115708.210000", "115708.213000", "115708.216000", "115708.219000", "115748.159000", "115748.162000", "115748.165000", "115748.168000", "115748.172000", "115748.175000", "115748.178000", "115748.181000", "115748.184000", "115748.187000", "115748.190000", "115748.193000", "115748.196000", "115748.199000", "115748.203000", "115748.206000", "115748.209000", "115748.212000", "115748.215000", "115748.218000", "115828.159000", "115828.162000", "115828.165000", "115828.168000", "115828.175000", "115828.179000", "115828.182000", "115828.185000", "115828.188000", "115828.191000", "115828.194000", "115828.197000", "115828.200000", "115828.203000", "115828.207000", "115828.210000", "115828.213000", "115828.216000", "115828.219000", "115828.222000", "115908.160000", "115908.163000", "115908.166000", "115908.169000", "115908.172000", "115908.176000", "115908.179000", "115908.182000", "115908.185000", "115908.188000", "115908.191000", "115908.194000", "115908.197000", "115908.200000", "115908.203000", "115908.207000", "115908.210000", "115908.213000", "115908.216000", "115908.219000", "115948.159000", "115948.162000", "115948.165000", "115948.169000", "115948.172000", "115948.175000", "115948.178000", "115948.181000", "115948.184000", "115948.187000", "115948.190000", "115948.193000", "115948.197000", "115948.200000", "115948.203000", "115948.206000", "115948.209000", "115948.212000", "115948.215000", "115948.218000", "120028.159000", "120028.162000", "120028.165000", "120028.168000", "120028.172000", "120028.175000", "120028.178000", "120028.181000", "120028.184000", "120028.187000", "120028.190000", "120028.193000", "120028.196000", "120028.200000", "120028.203000", "120028.206000", "120028.209000", "120028.212000", "120028.215000", "120028.218000", "120108.160000", "120108.164000", "120108.180000", "120108.198000", "120108.206000", "120108.209000", "120108.213000", "120108.219000", "120108.223000", "120108.228000", "120108.231000", "120108.235000", "120108.238000", "120108.241000", "120108.244000", "120108.247000", "120108.250000", "120108.254000", "120108.257000", "120108.260000", "120134.076000", "120134.079000", "120134.082000", "120134.084000", "120134.087000", "120134.089000", "120134.092000", "120134.095000", "120134.097000", "120134.100000", "120134.102000", "120134.105000", "120134.107000"],
      "InstanceNumber": [1, 2, 3, 4, 5, 6, 7, 8, 9, 10, 11, 12, 13, 14, 15, 16, 17, 18, 19, 20, 21, 22, 23, 24, 25, 26, 27, 28, 29, 30, 31, 32, 33, 34, 35, 36, 37, 38, 39, 40, 41, 42, 43, 44, 45, 46, 47, 48, 49, 50, 51, 52, 53, 54, 55, 56, 57, 58, 59, 60, 61, 62, 63, 64, 65, 66, 67, 68, 69, 70, 71, 72, 73, 74, 75, 76, 77, 78, 79, 80, 81, 82, 83, 84, 85, 86, 87, 88, 89, 90, 91, 92, 93, 94, 95, 96, 97, 98, 99, 100, 101, 102, 103, 104, 105, 106, 107, 108, 109, 110, 111, 112, 113, 114, 115, 116, 117, 118, 119, 120, 121, 122, 123, 124, 125, 126, 127, 128, 129, 130, 131, 132, 133, 134, 135, 136, 137, 138, 139, 140, 141, 142, 143, 144, 145, 146, 147, 148, 149, 150, 151, 152, 153, 154, 155, 156, 157, 158, 159, 160, 161, 162, 163, 164, 165, 166, 167, 168, 169, 170, 171, 172, 173, 174, 175, 176, 177, 178, 179, 180, 181, 182, 183, 184, 185, 186, 187, 188, 189, 190, 191, 192, 193, 194, 195, 196, 197, 198, 199, 200, 201, 202, 203, 204, 205, 206, 207, 208, 209, 210, 211, 212, 213, 214, 215, 216, 217, 218, 219, 220, 221, 222, 223, 224, 225, 226, 227, 228, 229, 230, 231, 232, 233, 234, 235, 236, 237],
      "LargestImagePixelValue": [2020, 2237, 2264, 2430, 1975, 1951, 1991, 2448, 2048, 2001, 1982, 2231, 2153, 1988, 1987, 2080, 2317, 2012, 2017, 1964, 2090, 2298, 2076, 2001, 1970, 1991, 2108, 2036, 2162, 1994, 1992, 2071, 2145, 2028, 1986, 2111, 2084, 2016, 2034, 2201, 2026, 1989, 2076, 1965, 1988, 1980, 2005, 1987, 1998, 2029, 2042, 2142, 2023, 1966, 2064, 2292, 2167, 2373, 2023, 1993, 1992, 1991, 2053, 2009, 1999, 2300, 2220, 2035, 2004, 2128, 1987, 2064, 1988, 1989, 1986, 2020, 1994, 2026, 2015, 1959, 2035, 1998, 1996, 1995, 2004, 2003, 1988, 2004, 2013, 2017, 2008, 2022, 2106, 2153, 1995, 1993, 1982, 2170, 2070, 2043, 2034, 1999, 2370, 1994, 2009, 1999, 2372, 2046, 1968, 2114, 2012, 2027, 1999, 2003, 2013, 2032, 2036, 2004, 2008, 2005, 2033, 1999, 2036, 2127, 2126, 2047, 2004, 1977, 2535, 2028, 1998, 2107, 2099, 2010, 2186, 1973, 2029, 1985, 2059, 2001, 1990, 1996, 2047, 2034, 2078, 2080, 1990, 1959, 1987, 2073, 2163, 2079, 2005, 1997, 1987, 1972, 2056, 2056, 2006, 1988, 1987, 1978, 2032, 2000, 2029, 2147, 2043, 2024, 1990, 2019, 1996, 2023, 1993, 2012, 1983, 2058, 2005, 2001, 2158, 2063, 1982, 2312, 2023, 2012, 2031, 1997, 2113, 2131, 2116, 2002, 1984, 1998, 2286, 2033, 1964, 2059, 2197, 1965, 1978, 1986, 2152, 2023, 2367, 2357, 2003, 1979, 2010, 2090, 1981, 1980, 1991, 2152, 2013, 2008, 1970, 1993, 1999, 2029, 1973, 1976, 1993, 2017, 1998, 2096, 2024, 2021, 1990, 1989, 1997, 2032, 2087, 1966, 1985, 2300, 1987, 1998, 2386],
      "WindowCenter": [753.0, 751.0, 751.0, 752.0, 751.0, 750.0, 751.0, 751.0, 750.0, 751.0, 751.0, 751.0, 751.0, 751.0, 751.0, 751.0, 751.0, 750.0, 751.0, 751.0, 751.0, 751.0, 751.0, 751.0, 751.0, 750.0, 751.0, 751.0, 751.0, 750.0, 750.0, 751.0, 751.0, 751.0, 751.0, 751.0, 750.0, 751.0, 752.0, 752.0, 751.0, 751.0, 751.0, 751.0, 752.0, 751.0, 751.0, 751.0, 752.0, 751.0, 751.0, 751.0, 751.0, 751.0, 751.0, 752.0, 751.0, 751.0, 750.0, 750.0, 751.0, 751.0, 751.0, 752.0, 752.0, 751.0, 750.0, 751.0, 752.0, 751.0, 750.0, 750.0, 750.0, 750.0, 750.0, 750.0, 750.0, 750.0, 751.0, 751.0, 752.0, 752.0, 751.0, 751.0, 750.0, 751.0, 751.0, 751.0, 751.0, 751.0, 751.0, 752.0, 751.0, 750.0, 750.0, 750.0, 751.0, 751.0, 750.0, 751.0, 751.0, 751.0, 751.0, 750.0, 750.0, 750.0, 750.0, 750.0, 751.0, 750.0, 750.0, 751.0, 751.0, 751.0, 750.0, 751.0, 750.0, 750.0, 750.0, 750.0, 750.0, 750.0, 752.0, 752.0, 751.0, 750.0, 750.0, 751.0, 751.0, 750.0, 751.0, 751.0, 751.0, 751.0, 751.0, 751.0, 750.0, 750.0, 751.0, 750.0, 750.0, 751.0, 751.0, 752.0, 752.0, 751.0, 750.0, 751.0, 751.0, 752.0, 751.0, 751.0, 752.0, 751.0, 750.0, 750.0, 751.0, 751.0, 751.0, 750.0, 750.0, 750.0, 751.0, 751.0, 751.0, 750.0, 750.0, 751.0, 751.0, 751.0, 750.0, 750.0, 750.0, 751.0, 751.0, 751.0, 750.0, 750.0, 751.0, 751.0, 751.0, 750.0, 749.0, 750.0, 753.0, 752.0, 752.0, 751.0, 751.0, 751.0, 751.0, 751.0, 751.0, 751.0, 751.0, 750.0, 750.0, 749.0, 750.0, 750.0, 751.0, 751.0, 752.0, 751.0, 749.0, 749.0, 751.0, 751.0, 751.0, 751.0, 751.0, 752.0, 751.0, 750.0, 751.0, 751.0, 750.0, 751.0, 750.0, 751.0, 751.0, 751.0, 751.0, 751.0, 750.0, 750.0, 751.0, 752.0, 751.0, 751.0, 750.0, 751.0, 751.0, 752.0, 751.0, 751.0, 752.0],
      "WindowWidth": [1706.0, 1703.0, 1702.0, 1705.0, 1699.0, 1698.0, 1701.0, 1704.0, 1699.0, 1702.0, 1701.0, 1703.0, 1702.0, 1702.0, 1702.0, 1701.0, 1702.0, 1699.0, 1701.0, 1701.0, 1701.0, 1701.0, 1700.0, 1701.0, 1700.0, 1699.0, 1703.0, 1702.0, 1701.0, 1698.0, 1698.0, 1700.0, 1701.0, 1703.0, 1702.0, 1700.0, 1698.0, 1700.0, 1704.0, 1704.0, 1701.0, 1700.0, 1702.0, 1701.0, 1703.0, 1702.0, 1700.0, 1700.0, 1702.0, 1702.0, 1702.0, 1700.0, 1700.0, 1700.0, 1702.0, 1705.0, 1702.0, 1704.0, 1699.0, 1698.0, 1701.0, 1701.0, 1701.0, 1703.0, 1703.0, 1702.0, 1698.0, 1701.0, 1704.0, 1701.0, 1697.0, 1698.0, 1697.0, 1696.0, 1696.0, 1697.0, 1697.0, 1698.0, 1700.0, 1700.0, 1704.0, 1703.0, 1701.0, 1701.0, 1699.0, 1700.0, 1702.0, 1701.0, 1701.0, 1701.0, 1702.0, 1703.0, 1701.0, 1699.0, 1697.0, 1699.0, 1701.0, 1701.0, 1698.0, 1699.0, 1702.0, 1701.0, 1702.0, 1698.0, 1699.0, 1699.0, 1700.0, 1698.0, 1699.0, 1698.0, 1695.0, 1699.0, 1699.0, 1700.0, 1699.0, 1700.0, 1699.0, 1698.0, 1696.0, 1697.0, 1696.0, 1698.0, 1703.0, 1703.0, 1701.0, 1699.0, 1698.0, 1700.0, 1702.0, 1698.0, 1702.0, 1703.0, 1702.0, 1701.0, 1702.0, 1699.0, 1698.0, 1698.0, 1700.0, 1698.0, 1699.0, 1700.0, 1701.0, 1704.0, 1704.0, 1700.0, 1699.0, 1699.0, 1700.0, 1703.0, 1702.0, 1700.0, 1702.0, 1701.0, 1698.0, 1699.0, 1702.0, 1701.0, 1698.0, 1697.0, 1698.0, 1697.0, 1700.0, 1700.0, 1698.0, 1699.0, 1698.0, 1699.0, 1699.0, 1699.0, 1697.0, 1696.0, 1698.0, 1702.0, 1700.0, 1700.0, 1698.0, 1697.0, 1700.0, 1702.0, 1700.0, 1697.0, 1693.0, 1697.0, 1707.0, 1705.0, 1703.0, 1702.0, 1701.0, 1699.0, 1699.0, 1700.0, 1704.0, 1700.0, 1698.0, 1698.0, 1698.0, 1694.0, 1695.0, 1697.0, 1699.0, 1701.0, 1705.0, 1701.0, 1694.0, 1695.0, 1700.0, 1702.0, 1699.0, 1700.0, 1701.0, 1704.0, 1699.0, 1697.0, 1699.0, 1699.0, 1697.0, 1699.0, 1698.0, 1699.0, 1699.0, 1701.0, 1701.0, 1700.0, 1698.0, 1697.0, 1700.0, 1702.0, 1701.0, 1700.0, 1698.0, 1700.0, 1702.0, 1705.0, 1700.0, 1700.0, 1703.0]
    },
    "slices": {}
  }
}