{
  "AcquisitionMatrixPE": 70,
  "AcquisitionNumber": 1,
  "AcquisitionTime": "08:59:30.615000",
  "BandwidthPerPixelPhaseEncode": 38.873,
  "BaseResolution": 70,
  "BodyPartExamined": "HEAD",
  "ConsistencyInfo": "N4_VE11B_LATEST_20150530",
  "ConversionSoftware": "dcm2niix",
  "ConversionSoftwareVersion": "v1.0.20190410  GCC6.3.0",
  "DerivedVendorReportedEchoSpacing": 0.000489996,
  "DeviceSerialNumber": "66088",
  "DwellTime": 2.9e-06,
  "EchoTime": 0.03,
  "EchoTrainLength": 53,
  "EffectiveEchoSpacing": 0.000367497,
  "FlipAngle": 90,
  "ImageOrientationPatientDICOM": [0.999944, -0.0100919, -0.00309521, 0.00872642, 0.955289, -0.295545],
  "ImageType": [
    "ORIGINAL",
    "PRIMARY",
    "M",
    "ND",
    "NORM",
    "MOSAIC"
],
  "ImagingFrequency": 123.191,
  "InPlanePhaseEncodingDirectionDICOM": "COL",
  "InstitutionAddress": "Street_StreetNo_City_District_IR_ZIP",
  "InstitutionName": "Hospital",
  "InstitutionalDepartmentName": "Department",
  "MRAcquisitionType": "2D",
  "MagneticFieldStrength": 3,
  "Manufacturer": "Siemens",
  "ManufacturersModelName": "Prisma",
  "Modality": "MR",
  "ParallelReductionFactorInPlane": 2,
  "PartialFourier": 1,
  "PatientPosition": "HFS",
  "PercentPhaseFOV": 100,
  "PhaseEncodingDirection": "j-",
  "PhaseEncodingSteps": 105,
  "PhaseOversampling": 0.5,
  "PhaseResolution": 1,
  "PixelBandwidth": 2465,
  "ProcedureStepDescription": "NBML_Project_P-96169_Ebrahiminiya-Khaliq",
  "ProtocolName": "ep2d_p2_Task_3.5_measurment:237",
  "PulseSequenceDetails": "%SiemensSeq%_ep2d_pace",
  "ReceiveCoilActiveElements": "HC1-7",
  "ReceiveCoilName": "HeadNeck_64",
  "ReconMatrixPE": 70,
  "RefLinesPE": 24,
  "RepetitionTime": 2,
  "SAR": 0.0858195,
  "ScanOptions": "FS",
  "ScanningSequence": "EP",
  "SequenceName": "_epfid2d1_70",
  "SequenceVariant": "SK_OSP",
  "SeriesDescription": "ep2d_p2_Task_3.5_measurment:237",
  "SeriesNumber": 3,
  "ShimSetting": [2603, -4489, -3258, 374, 35, 68, 14, 21],
  "SliceThickness": 3.5,
  "SliceTiming": [0.99, 0, 1.0475, 0.0575, 1.1075, 0.1175, 1.165, 0.175, 1.2225, 0.2325, 1.28, 0.2925, 1.34, 0.35, 1.3975, 0.4075, 1.455, 0.465, 1.515, 0.525, 1.5725, 0.5825, 1.63, 0.64, 1.69, 0.7, 1.7475, 0.7575, 1.805, 0.815, 1.8625, 0.8725, 1.9225, 0.9325],
  "SoftwareVersions": "syngo_MR_E11",
  "SpacingBetweenSlices": 3.85,
  "StationName": "AWP66088",
  "TaskName": "categorySelectivity",
  "TotalReadoutTime": 0.0253573,
  "TxRefAmp": 230.304,
  "dcmmeta_affine": [
    [-3.5426597595214844, 0.030916452407836914, -0.022866854444146156, 122.28917694091797],
    [0.0357542559504509, 3.3844523429870605, -1.1376806497573853, -86.35160064697266],
    [-0.010965904220938683, 1.0470736026763916, 3.6779966354370117, -69.99176788330078],
    [0.0, 0.0, 0.0, 1.0]
],
  "dcmmeta_reorient_transform": [
    [0.0, -1.0, 0.0, 69.0],
    [1.0, 0.0, 0.0, 0.0],
    [0.0, 0.0, 1.0, 0.0],
    [0.0, 0.0, 0.0, 1.0]
],
  "dcmmeta_shape": [70, 70, 34, 237],
  "dcmmeta_slice_dim": 2,
  "dcmmeta_version": 0.6,
  "global": {
    "const": {
      "AcquisitionMatrix": [70, 0, 0, 70],
      "AngioFlag": "N",
      "BitsAllocated": 16,
      "BitsStored": 12,
      "BodyPartExamined": "HEAD",
      "Columns": 420,
      "EchoNumbers": 1,
      "EchoTime": 30.0,
      "EchoTrainLength": 53,
      "FlipAngle": 90.0,
      "HighBit": 11,
      "ImageOrientationPatient": [0.99994428477258, -0.0100919272664, -0.0030952148061, 0.00872641791144, 0.95528897507964, -0.2955449605758],
      "ImagePositionPatient": [-749.79825301008, -733.19778512894, 187.41321818784],
      "ImageType": [
        "ORIGINAL",
        "PRIMARY",
        "M",
        "ND",
        "NORM",
        "MOSAIC"
],
      "ImagedNucleus": "1H",
      "ImagingFrequency": 123.191192,
      "InPlanePhaseEncodingDirection": "COL",
      "MRAcquisitionType": "2D",
      "MagneticFieldStrength": 3.0,
      "Manufacturer": "SIEMENS",
      "ManufacturerModelName": "Prisma",
      "Modality": "MR",
      "NumberOfAverages": 1.0,
      "NumberOfPhaseEncodingSteps": 105,
      "PercentPhaseFieldOfView": 100.0,
      "PercentSampling": 100.0,
      "PerformedProcedureStepStartTime": "084252.910000",
      "PhotometricInterpretation": "MONOCHROME2",
      "PixelBandwidth": 2465.0,
      "PixelRepresentation": 0,
      "PixelSpacing": [3.542857170105, 3.542857170105],
      "ProtocolName": "ep2d_p2_Task_3.5_measurment:237",
      "RepetitionTime": 2000.0,
      "Rows": 420,
      "SAR": 0.08581947552585,
      "SamplesPerPixel": 1,
      "ScanOptions": "FS",
      "ScanningSequence": "EP",
      "SequenceName": "*epfid2d1_70",
      "SequenceVariant": [
        "SK",
        "OSP"
],
      "SeriesDescription": "ep2d_p2_Task_3.5_measurment:237",
      "SeriesNumber": 3,
      "SeriesTime": "090027.441000",
      "SliceLocation": -42.074106472858,
      "SliceThickness": 3.5,
      "SmallestImagePixelValue": 0,
      "SoftwareVersions": "syngo MR E11",
      "SpacingBetweenSlices": 3.8499999490272,
      "SpecificCharacterSet": "ISO_IR 100",
      "StudyID": "1",
      "StudyTime": "084252.759000",
      "TransmitCoilName": "Body",
      "VariableFlipAngleFlag": "N",
      "WindowCenterWidthExplanation": "Algo1",
      "dBdt": 0.0},
    "slices": {}
  },
  "time": {
    "samples": {
      "AcquisitionNumber": [1, 2, 3, 4, 5, 6, 7, 8, 9, 10, 11, 12, 13, 14, 15, 16, 17, 18, 19, 20, 21, 22, 23, 24, 25, 26, 27, 28, 29, 30, 31, 32, 33, 34, 35, 36, 37, 38, 39, 40, 41, 42, 43, 44, 45, 46, 47, 48, 49, 50, 51, 52, 53, 54, 55, 56, 57, 58, 59, 60, 61, 62, 63, 64, 65, 66, 67, 68, 69, 70, 71, 72, 73, 74, 75, 76, 77, 78, 79, 80, 81, 82, 83, 84, 85, 86, 87, 88, 89, 90, 91, 92, 93, 94, 95, 96, 97, 98, 99, 100, 101, 102, 103, 104, 105, 106, 107, 108, 109, 110, 111, 112, 113, 114, 115, 116, 117, 118, 119, 120, 121, 122, 123, 124, 125, 126, 127, 128, 129, 130, 131, 132, 133, 134, 135, 136, 137, 138, 139, 140, 141, 142, 143, 144, 145, 146, 147, 148, 149, 150, 151, 152, 153, 154, 155, 156, 157, 158, 159, 160, 161, 162, 163, 164, 165, 166, 167, 168, 169, 170, 171, 172, 173, 174, 175, 176, 177, 178, 179, 180, 181, 182, 183, 184, 185, 186, 187, 188, 189, 190, 191, 192, 193, 194, 195, 196, 197, 198, 199, 200, 201, 202, 203, 204, 205, 206, 207, 208, 209, 210, 211, 212, 213, 214, 215, 216, 217, 218, 219, 220, 221, 222, 223, 224, 225, 226, 227, 228, 229, 230, 231, 232, 233, 234, 235, 236, 237],
      "AcquisitionTime": ["085930.615000", "085932.615000", "085934.615000", "085936.615000", "085938.615000", "085940.615000", "085942.615000", "085944.615000", "085946.615000", "085948.615000", "085950.615000", "085952.615000", "085954.615000", "085956.615000", "085958.615000", "090000.615000", "090002.615000", "090004.615000", "090006.615000", "090008.615000", "090010.615000", "090012.615000", "090014.615000", "090016.615000", "090018.615000", "090020.615000", "090022.615000", "090024.615000", "090026.615000", "090028.615000", "090030.615000", "090032.615000", "090034.615000", "090036.615000", "090038.615000", "090040.615000", "090042.615000", "090044.615000", "090046.615000", "090048.615000", "090050.615000", "090052.615000", "090054.615000", "090056.615000", "090058.615000", "090100.615000", "090102.615000", "090104.615000", "090106.615000", "090108.615000", "090110.615000", "090112.615000", "090114.615000", "090116.615000", "090118.615000", "090120.615000", "090122.615000", "090124.615000", "090126.615000", "090128.615000", "090130.615000", "090132.615000", "090134.615000", "090136.615000", "090138.615000", "090140.615000", "090142.615000", "090144.615000", "090146.615000", "090148.615000", "090150.615000", "090152.615000", "090154.615000", "090156.615000", "090158.615000", "090200.615000", "090202.615000", "090204.615000", "090206.615000", "090208.615000", "090210.615000", "090212.615000", "090214.615000", "090216.615000", "090218.615000", "090220.615000", "090222.615000", "090224.615000", "090226.615000", "090228.615000", "090230.615000", "090232.615000", "090234.615000", "090236.615000", "090238.615000", "090240.615000", "090242.615000", "090244.615000", "090246.615000", "090248.615000", "090250.615000", "090252.615000", "090254.615000", "090256.615000", "090258.615000", "090300.615000", "090302.615000", "090304.615000", "090306.615000", "090308.615000", "090310.615000", "090312.615000", "090314.615000", "090316.615000", "090318.615000", "090320.615000", "090322.615000", "090324.615000", "090326.615000", "090328.615000", "090330.615000", "090332.615000", "090334.615000", "090336.615000", "090338.615000", "090340.615000", "090342.615000", "090344.615000", "090346.615000", "090348.615000", "090350.615000", "090352.615000", "090354.615000", "090356.615000", "090358.615000", "090400.615000", "090402.615000", "090404.615000", "090406.615000", "090408.615000", "090410.615000", "090412.615000", "090414.615000", "090416.615000", "090418.615000", "090420.615000", "090422.615000", "090424.615000", "090426.615000", "090428.615000", "090430.615000", "090432.615000", "090434.615000", "090436.615000", "090438.615000", "090440.615000", "090442.615000", "090444.615000", "090446.615000", "090448.615000", "090450.615000", "090452.615000", "090454.615000", "090456.615000", "090458.615000", "090500.615000", "090502.615000", "090504.615000", "090506.615000", "090508.615000", "090510.615000", "090512.615000", "090514.615000", "090516.615000", "090518.615000", "090520.615000", "090522.615000", "090524.615000", "090526.615000", "090528.615000", "090530.615000", "090532.615000", "090534.615000", "090536.615000", "090538.615000", "090540.615000", "090542.615000", "090544.615000", "090546.615000", "090548.615000", "090550.615000", "090552.615000", "090554.615000", "090556.615000", "090558.615000", "090600.615000", "090602.615000", "090604.615000", "090606.615000", "090608.615000", "090610.615000", "090612.615000", "090614.615000", "090616.615000", "090618.615000", "090620.615000", "090622.615000", "090624.615000", "090626.615000", "090628.615000", "090630.615000", "090632.615000", "090634.615000", "090636.615000", "090638.615000", "090640.615000", "090642.615000", "090644.615000", "090646.615000", "090648.615000", "090650.615000", "090652.615000", "090654.615000", "090656.615000", "090658.615000", "090700.615000", "090702.615000", "090704.615000", "090706.615000", "090708.615000", "090710.615000", "090712.615000", "090714.615000", "090716.615000", "090718.615000", "090720.615000", "090722.615000"],
      "ContentTime": ["090027.446000", "090027.450000", "090027.453000", "090027.455000", "090027.468000", "090027.471000", "090027.473000", "090027.476000", "090027.478000", "090027.481000", "090027.483000", "090027.486000", "090027.488000", "090027.497000", "090027.500000", "090027.502000", "090027.505000", "090027.507000", "090027.510000", "090027.513000", "090027.515000", "090027.518000", "090027.520000", "090027.523000", "090027.525000", "090027.528000", "090027.530000", "090027.533000", "090107.440000", "090107.442000", "090107.445000", "090107.447000", "090107.457000", "090107.460000", "090107.462000", "090107.464000", "090107.467000", "090107.469000", "090107.471000", "090107.474000", "090107.476000", "090107.479000", "090107.481000", "090107.495000", "090107.497000", "090107.500000", "090107.502000", "090107.509000", "090147.438000", "090147.441000", "090147.443000", "090147.445000", "090147.448000", "090147.450000", "090147.453000", "090147.455000", "090147.457000", "090147.460000", "090147.462000", "090147.465000", "090147.467000", "090147.469000", "090147.472000", "090147.474000", "090147.476000", "090147.479000", "090147.481000", "090147.484000", "090227.438000", "090227.441000", "090227.444000", "090227.446000", "090227.449000", "090227.451000", "090227.454000", "090227.456000", "090227.459000", "090227.462000", "090227.465000", "090227.467000", "090227.470000", "090227.472000", "090227.475000", "090227.477000", "090227.480000", "090227.482000", "090227.485000", "090227.487000", "090307.438000", "090307.441000", "090307.443000", "090307.446000", "090307.448000", "090307.450000", "090307.453000", "090307.455000", "090307.457000", "090307.460000", "090307.462000", "090307.465000", "090307.467000", "090307.470000", "090307.472000", "090307.474000", "090307.477000", "090307.479000", "090307.481000", "090307.484000", "090347.439000", "090347.442000", "090347.445000", "090347.447000", "090347.450000", "090347.452000", "090347.455000", "090347.457000", "090347.460000", "090347.463000", "090347.465000", "090347.468000", "090347.471000", "090347.473000", "090347.476000", "090347.478000", "090347.481000", "090347.483000", "090347.486000", "090347.488000", "090407.438000", "090407.441000", "090407.444000", "090407.446000", "090407.449000", "090407.451000", "090407.454000", "090407.456000", "090407.459000", "090407.462000", "090447.438000", "090447.441000", "090447.443000", "090447.446000", "090447.448000", "090447.450000", "090447.453000", "090447.455000", "090447.458000", "090447.460000", "090447.462000", "090447.465000", "090447.467000", "090447.469000", "090447.472000", "090447.474000", "090447.477000", "090447.479000", "090447.481000", "090447.484000", "090527.438000", "090527.452000", "090527.454000", "090527.456000", "090527.459000", "090527.461000", "090527.463000", "090527.466000", "090527.468000", "090527.471000", "090527.473000", "090527.475000", "090527.478000", "090527.480000", "090527.483000", "090527.485000", "090527.487000", "090527.490000", "090527.492000", "090527.495000", "090607.439000", "090607.442000", "090607.445000", "090607.447000", "090607.450000", "090607.452000", "090607.455000", "090607.458000", "090607.460000", "090607.463000", "090607.465000", "090607.468000", "090607.470000", "090607.473000", "090607.475000", "090607.478000", "090607.480000", "090607.483000", "090607.486000", "090607.489000", "090647.439000", "090647.442000", "090647.444000", "090647.447000", "090647.449000", "090647.452000", "090647.454000", "090647.457000", "090647.460000", "090647.462000", "090647.465000", "090647.467000", "090647.470000", "090647.472000", "090647.475000", "090647.477000", "090647.480000", "090647.483000", "090647.485000", "090647.488000", "090723.967000", "090723.971000", "090723.973000", "090723.976000", "090723.978000", "090723.981000", "090723.983000", "090723.986000", "090723.988000", "090723.991000", "090723.993000", "090723.996000", "090724.000000", "090724.013000", "090724.016000", "090724.018000", "090724.021000", "090724.031000", "090724.035000"],
      "InstanceCreationTime": ["090027.446000", "090027.450000", "090027.453000", "090027.455000", "090027.468000", "090027.471000", "090027.473000", "090027.476000", "090027.478000", "090027.481000", "090027.483000", "090027.486000", "090027.488000", "090027.497000", "090027.500000", "090027.502000", "090027.505000", "090027.507000", "090027.510000", "090027.513000", "090027.515000", "090027.518000", "090027.520000", "090027.523000", "090027.525000", "090027.528000", "090027.530000", "090027.533000", "090107.440000", "090107.442000", "090107.445000", "090107.447000", "090107.457000", "090107.460000", "090107.462000", "090107.464000", "090107.467000", "090107.469000", "090107.471000", "090107.474000", "090107.476000", "090107.479000", "090107.481000", "090107.495000", "090107.497000", "090107.500000", "090107.502000", "090107.509000", "090147.438000", "090147.441000", "090147.443000", "090147.445000", "090147.448000", "090147.450000", "090147.453000", "090147.455000", "090147.457000", "090147.460000", "090147.462000", "090147.465000", "090147.467000", "090147.469000", "090147.472000", "090147.474000", "090147.476000", "090147.479000", "090147.481000", "090147.484000", "090227.438000", "090227.441000", "090227.444000", "090227.446000", "090227.449000", "090227.451000", "090227.454000", "090227.456000", "090227.459000", "090227.462000", "090227.465000", "090227.467000", "090227.470000", "090227.472000", "090227.475000", "090227.477000", "090227.480000", "090227.482000", "090227.485000", "090227.487000", "090307.438000", "090307.441000", "090307.443000", "090307.446000", "090307.448000", "090307.450000", "090307.453000", "090307.455000", "090307.457000", "090307.460000", "090307.462000", "090307.465000", "090307.467000", "090307.470000", "090307.472000", "090307.474000", "090307.477000", "090307.479000", "090307.481000", "090307.484000", "090347.439000", "090347.442000", "090347.445000", "090347.447000", "090347.450000", "090347.452000", "090347.455000", "090347.457000", "090347.460000", "090347.463000", "090347.465000", "090347.468000", "090347.471000", "090347.473000", "090347.476000", "090347.478000", "090347.481000", "090347.483000", "090347.486000", "090347.488000", "090407.438000", "090407.441000", "090407.444000", "090407.446000", "090407.449000", "090407.451000", "090407.454000", "090407.456000", "090407.459000", "090407.462000", "090447.438000", "090447.441000", "090447.443000", "090447.446000", "090447.448000", "090447.450000", "090447.453000", "090447.455000", "090447.458000", "090447.460000", "090447.462000", "090447.465000", "090447.467000", "090447.469000", "090447.472000", "090447.474000", "090447.477000", "090447.479000", "090447.481000", "090447.484000", "090527.438000", "090527.452000", "090527.454000", "090527.456000", "090527.459000", "090527.461000", "090527.463000", "090527.466000", "090527.468000", "090527.471000", "090527.473000", "090527.475000", "090527.478000", "090527.480000", "090527.483000", "090527.485000", "090527.487000", "090527.490000", "090527.492000", "090527.495000", "090607.439000", "090607.442000", "090607.445000", "090607.447000", "090607.450000", "090607.452000", "090607.455000", "090607.458000", "090607.460000", "090607.463000", "090607.465000", "090607.468000", "090607.470000", "090607.473000", "090607.475000", "090607.478000", "090607.480000", "090607.483000", "090607.486000", "090607.489000", "090647.439000", "090647.442000", "090647.444000", "090647.447000", "090647.449000", "090647.452000", "090647.454000", "090647.457000", "090647.460000", "090647.462000", "090647.465000", "090647.467000", "090647.470000", "090647.472000", "090647.475000", "090647.477000", "090647.480000", "090647.483000", "090647.485000", "090647.488000", "090723.967000", "090723.971000", "090723.973000", "090723.976000", "090723.978000", "090723.981000", "090723.983000", "090723.986000", "090723.988000", "090723.991000", "090723.993000", "090723.996000", "090724.000000", "090724.013000", "090724.016000", "090724.018000", "090724.021000", "090724.031000", "090724.035000"],
      "InstanceNumber": [1, 2, 3, 4, 5, 6, 7, 8, 9, 10, 11, 12, 13, 14, 15, 16, 17, 18, 19, 20, 21, 22, 23, 24, 25, 26, 27, 28, 29, 30, 31, 32, 33, 34, 35, 36, 37, 38, 39, 40, 41, 42, 43, 44, 45, 46, 47, 48, 49, 50, 51, 52, 53, 54, 55, 56, 57, 58, 59, 60, 61, 62, 63, 64, 65, 66, 67, 68, 69, 70, 71, 72, 73, 74, 75, 76, 77, 78, 79, 80, 81, 82, 83, 84, 85, 86, 87, 88, 89, 90, 91, 92, 93, 94, 95, 96, 97, 98, 99, 100, 101, 102, 103, 104, 105, 106, 107, 108, 109, 110, 111, 112, 113, 114, 115, 116, 117, 118, 119, 120, 121, 122, 123, 124, 125, 126, 127, 128, 129, 130, 131, 132, 133, 134, 135, 136, 137, 138, 139, 140, 141, 142, 143, 144, 145, 146, 147, 148, 149, 150, 151, 152, 153, 154, 155, 156, 157, 158, 159, 160, 161, 162, 163, 164, 165, 166, 167, 168, 169, 170, 171, 172, 173, 174, 175, 176, 177, 178, 179, 180, 181, 182, 183, 184, 185, 186, 187, 188, 189, 190, 191, 192, 193, 194, 195, 196, 197, 198, 199, 200, 201, 202, 203, 204, 205, 206, 207, 208, 209, 210, 211, 212, 213, 214, 215, 216, 217, 218, 219, 220, 221, 222, 223, 224, 225, 226, 227, 228, 229, 230, 231, 232, 233, 234, 235, 236, 237],
      "LargestImagePixelValue": [2778, 1929, 1916, 2276, 1993, 1912, 2330, 1951, 1912, 1940, 2705, 1984, 1906, 1957, 1988, 2130, 2199, 2005, 1917, 1952, 1903, 1923, 2128, 2300, 1919, 1917, 1912, 1938, 2080, 2402, 1953, 1961, 1977, 2128, 1921, 1925, 2318, 1934, 2200, 2025, 1955, 1950, 2384, 1943, 1926, 2036, 2094, 1934, 1942, 2430, 1933, 1941, 1943, 2198, 1940, 1932, 2198, 1935, 1942, 2263, 1916, 1916, 2016, 2508, 1949, 2230, 1914, 1953, 2148, 1975, 2344, 1950, 1944, 2136, 1945, 2198, 1938, 2160, 1936, 2183, 1948, 2201, 1934, 2179, 1928, 2310, 1934, 2292, 1940, 2074, 1936, 1927, 2272, 1937, 2286, 1943, 1931, 2439, 1904, 1951, 2054, 1896, 2197, 1896, 2393, 1915, 1920, 2098, 1903, 2187, 1888, 1948, 2134, 1898, 2555, 1884, 1904, 2006, 1914, 2328, 1863, 1907, 2088, 1888, 1929, 2128, 1884, 2019, 2051, 1933, 2062, 2032, 1852, 2422, 1864, 1871, 2327, 1858, 1841, 2228, 1863, 1869, 2290, 1866, 1915, 2066, 1878, 2177, 1874, 2134, 1889, 2019, 1988, 1915, 2152, 1873, 2113, 1871, 2219, 1875, 2319, 1879, 1996, 1938, 1884, 2152, 1882, 2190, 1875, 2234, 1872, 2234, 1856, 2177, 1875, 2175, 1879, 2194, 1846, 2232, 1840, 2016, 1874, 2344, 1853, 2089, 1830, 2022, 1853, 2090, 1832, 2193, 1882, 2076, 1820, 2126, 1833, 1994, 1839, 1962, 1833, 2160, 1828, 2089, 1841, 2012, 1839, 2101, 1830, 2161, 1836, 2226, 1843, 2167, 1827, 2027, 1967, 1833, 2160, 1832, 2120, 1853, 2187, 1850, 2161, 1832, 2188, 1835, 2259, 1839, 2131, 1843, 1874, 2135, 1867, 2182, 1851],
      "WindowCenter": [702.0, 699.0, 699.0, 700.0, 699.0, 699.0, 701.0, 701.0, 701.0, 701.0, 701.0, 699.0, 698.0, 699.0, 699.0, 699.0, 699.0, 699.0, 699.0, 698.0, 699.0, 699.0, 698.0, 699.0, 699.0, 699.0, 699.0, 699.0, 699.0, 699.0, 698.0, 699.0, 698.0, 699.0, 699.0, 699.0, 700.0, 699.0, 700.0, 700.0, 700.0, 700.0, 699.0, 698.0, 698.0, 699.0, 699.0, 698.0, 698.0, 700.0, 698.0, 699.0, 698.0, 699.0, 698.0, 698.0, 700.0, 698.0, 698.0, 699.0, 698.0, 699.0, 699.0, 700.0, 698.0, 698.0, 698.0, 699.0, 700.0, 700.0, 701.0, 699.0, 699.0, 700.0, 699.0, 699.0, 699.0, 698.0, 699.0, 699.0, 699.0, 699.0, 699.0, 699.0, 699.0, 700.0, 699.0, 700.0, 699.0, 698.0, 698.0, 699.0, 699.0, 699.0, 700.0, 699.0, 700.0, 700.0, 698.0, 698.0, 698.0, 698.0, 699.0, 698.0, 699.0, 698.0, 699.0, 699.0, 698.0, 699.0, 698.0, 699.0, 699.0, 698.0, 699.0, 698.0, 698.0, 698.0, 698.0, 699.0, 698.0, 698.0, 699.0, 698.0, 699.0, 699.0, 698.0, 699.0, 698.0, 698.0, 698.0, 698.0, 697.0, 699.0, 698.0, 698.0, 700.0, 698.0, 698.0, 699.0, 698.0, 699.0, 700.0, 699.0, 698.0, 698.0, 697.0, 698.0, 698.0, 698.0, 698.0, 698.0, 698.0, 698.0, 698.0, 697.0, 698.0, 698.0, 698.0, 698.0, 699.0, 698.0, 698.0, 698.0, 698.0, 698.0, 698.0, 699.0, 698.0, 698.0, 698.0, 699.0, 698.0, 699.0, 698.0, 698.0, 697.0, 698.0, 697.0, 699.0, 697.0, 698.0, 698.0, 698.0, 697.0, 697.0, 698.0, 698.0, 698.0, 699.0, 698.0, 698.0, 697.0, 699.0, 698.0, 698.0, 698.0, 698.0, 697.0, 698.0, 698.0, 699.0, 698.0, 698.0, 697.0, 697.0, 697.0, 698.0, 698.0, 698.0, 698.0, 699.0, 698.0, 698.0, 697.0, 697.0, 697.0, 696.0, 698.0, 697.0, 699.0, 699.0, 699.0, 698.0, 699.0, 698.0, 699.0, 697.0, 698.0, 697.0, 698.0, 698.0, 697.0, 698.0, 698.0, 699.0, 698.0],
      "WindowWidth": [1585.0, 1572.0, 1571.0, 1575.0, 1573.0, 1572.0, 1580.0, 1578.0, 1577.0, 1577.0, 1581.0, 1571.0, 1571.0, 1571.0, 1571.0, 1573.0, 1573.0, 1571.0, 1570.0, 1568.0, 1571.0, 1571.0, 1571.0, 1571.0, 1571.0, 1574.0, 1572.0, 1571.0, 1572.0, 1574.0, 1569.0, 1571.0, 1569.0, 1571.0, 1571.0, 1574.0, 1578.0, 1573.0, 1574.0, 1575.0, 1575.0, 1574.0, 1574.0, 1569.0, 1570.0, 1571.0, 1572.0, 1570.0, 1569.0, 1576.0, 1569.0, 1570.0, 1569.0, 1572.0, 1568.0, 1568.0, 1573.0, 1570.0, 1569.0, 1572.0, 1568.0, 1570.0, 1572.0, 1575.0, 1568.0, 1569.0, 1568.0, 1573.0, 1576.0, 1575.0, 1578.0, 1572.0, 1571.0, 1576.0, 1573.0, 1572.0, 1569.0, 1570.0, 1570.0, 1573.0, 1573.0, 1573.0, 1571.0, 1572.0, 1570.0, 1574.0, 1570.0, 1575.0, 1569.0, 1569.0, 1569.0, 1571.0, 1573.0, 1571.0, 1575.0, 1573.0, 1573.0, 1576.0, 1568.0, 1568.0, 1568.0, 1566.0, 1571.0, 1569.0, 1573.0, 1567.0, 1570.0, 1572.0, 1568.0, 1571.0, 1568.0, 1571.0, 1573.0, 1568.0, 1574.0, 1567.0, 1568.0, 1568.0, 1569.0, 1572.0, 1566.0, 1567.0, 1571.0, 1569.0, 1570.0, 1570.0, 1567.0, 1570.0, 1570.0, 1569.0, 1568.0, 1568.0, 1565.0, 1571.0, 1567.0, 1568.0, 1575.0, 1569.0, 1569.0, 1572.0, 1567.0, 1570.0, 1574.0, 1569.0, 1568.0, 1568.0, 1566.0, 1569.0, 1566.0, 1568.0, 1568.0, 1570.0, 1568.0, 1568.0, 1568.0, 1565.0, 1569.0, 1568.0, 1570.0, 1566.0, 1571.0, 1567.0, 1568.0, 1566.0, 1567.0, 1570.0, 1566.0, 1571.0, 1566.0, 1569.0, 1568.0, 1570.0, 1567.0, 1570.0, 1567.0, 1569.0, 1564.0, 1569.0, 1563.0, 1570.0, 1564.0, 1569.0, 1568.0, 1569.0, 1565.0, 1566.0, 1566.0, 1567.0, 1567.0, 1571.0, 1568.0, 1568.0, 1565.0, 1569.0, 1567.0, 1569.0, 1566.0, 1567.0, 1564.0, 1568.0, 1568.0, 1571.0, 1567.0, 1567.0, 1565.0, 1565.0, 1564.0, 1567.0, 1566.0, 1569.0, 1568.0, 1570.0, 1567.0, 1568.0, 1564.0, 1565.0, 1565.0, 1562.0, 1568.0, 1565.0, 1569.0, 1570.0, 1572.0, 1566.0, 1570.0, 1566.0, 1570.0, 1565.0, 1568.0, 1565.0, 1568.0, 1565.0, 1565.0, 1568.0, 1567.0, 1570.0, 1566.0]
    },
    "slices": {}
  }
}