{
  "AcquisitionMatrixPE": 70,
  "AcquisitionNumber": 1,
  "AcquisitionTime": "10:01:59.427500",
  "BandwidthPerPixelPhaseEncode": 38.873,
  "BaseResolution": 70,
  "BodyPartExamined": "HEAD",
  "ConsistencyInfo": "N4_VE11B_LATEST_20150530",
  "ConversionSoftware": "dcm2niix",
  "ConversionSoftwareVersion": "v1.0.20190410  GCC6.3.0",
  "DerivedVendorReportedEchoSpacing": 0.000489996,
  "DeviceSerialNumber": "66088",
  "DwellTime": 2.9e-06,
  "EchoTime": 0.03,
  "EchoTrainLength": 53,
  "EffectiveEchoSpacing": 0.000367497,
  "FlipAngle": 90,
  "ImageOrientationPatientDICOM": [0.99143, 0.0494897, 0.120901, 0.0207675, 0.853991, -0.519872],
  "ImageType": [
    "ORIGINAL",
    "PRIMARY",
    "M",
    "ND",
    "NORM",
    "MOSAIC"
],
  "ImagingFrequency": 123.191,
  "InPlanePhaseEncodingDirectionDICOM": "COL",
  "InstitutionAddress": "Street_StreetNo_City_District_IR_ZIP",
  "InstitutionName": "NBML",
  "InstitutionalDepartmentName": "Department",
  "MRAcquisitionType": "2D",
  "MagneticFieldStrength": 3,
  "Manufacturer": "Siemens",
  "ManufacturersModelName": "Prisma",
  "Modality": "MR",
  "ParallelReductionFactorInPlane": 2,
  "PartialFourier": 1,
  "PatientPosition": "HFS",
  "PercentPhaseFOV": 100,
  "PhaseEncodingDirection": "j-",
  "PhaseEncodingSteps": 105,
  "PhaseOversampling": 0.5,
  "PhaseResolution": 1,
  "PixelBandwidth": 2465,
  "ProcedureStepDescription": "NBML_Project_P-95001-Shirvaliloo",
  "ProtocolName": "ep2d_p2_Task_3.5_measurment:237",
  "PulseSequenceDetails": "%SiemensSeq%_ep2d_pace",
  "ReceiveCoilActiveElements": "HC1-7;NC1",
  "ReceiveCoilName": "HeadNeck_64",
  "ReconMatrixPE": 70,
  "RefLinesPE": 24,
  "RepetitionTime": 2,
  "SAR": 0.0791554,
  "ScanOptions": "FS",
  "ScanningSequence": "EP",
  "SequenceName": "_epfid2d1_70",
  "SequenceVariant": "SK_OSP",
  "SeriesDescription": "ep2d_p2_Task_3.5_measurment:237",
  "SeriesNumber": 11,
  "ShimSetting": [2609, -4461, -3208, 455, -38, 38, -167, 12],
  "SliceThickness": 3.5,
  "SliceTiming": [0.99, 0, 1.05, 0.06, 1.1075, 0.1175, 1.165, 0.175, 1.225, 0.235, 1.2825, 0.2925, 1.34, 0.35, 1.3975, 0.4075, 1.4575, 0.4675, 1.515, 0.525, 1.5725, 0.5825, 1.6325, 0.6425, 1.69, 0.7, 1.7475, 0.7575, 1.805, 0.8175, 1.865, 0.875, 1.9225, 0.9325],
  "SoftwareVersions": "syngo_MR_E11",
  "SpacingBetweenSlices": 3.85,
  "StationName": "AWP66088",
  "TaskName": "categorySelectivity",
  "TotalReadoutTime": 0.0253573,
  "TxRefAmp": 227.357,
  "dcmmeta_affine": [
    [-3.512495279312134, 0.073576420545578, 0.4965619146823883, 119.00239562988281],
    [-0.1753348857164383, 3.0255696773529053, -1.9940228462219238, -66.93009185791016],
    [0.42833656072616577, 1.8418338298797607, 3.2557332515716553, -102.29907989501953],
    [0.0, 0.0, 0.0, 1.0]
],
  "dcmmeta_reorient_transform": [
    [0.0, -1.0, 0.0, 69.0],
    [1.0, 0.0, 0.0, 0.0],
    [0.0, 0.0, 1.0, 0.0],
    [0.0, 0.0, 0.0, 1.0]
],
  "dcmmeta_shape": [70, 70, 34, 237],
  "dcmmeta_slice_dim": 2,
  "dcmmeta_version": 0.6,
  "global": {
    "const": {
      "AccessionNumber": "MB",
      "AcquisitionMatrix": [70, 0, 0, 70],
      "AngioFlag": "N",
      "BitsAllocated": 16,
      "BitsStored": 12,
      "BodyPartExamined": "HEAD",
      "Columns": 420,
      "EchoNumbers": 1,
      "EchoTime": 30.0,
      "EchoTrainLength": 53,
      "FlipAngle": 90.0,
      "HighBit": 11,
      "ImageOrientationPatient": [0.99143008383097, 0.04948968676734, 0.12090144655292, 0.02076753838126, 0.85399142399391, -0.5198724430997],
      "ImagePositionPatient": [-751.64170308241, -701.99250856771, 272.1494757462],
      "ImageType": [
        "ORIGINAL",
        "PRIMARY",
        "M",
        "ND",
        "NORM",
        "MOSAIC"
],
      "ImagedNucleus": "1H",
      "ImagingFrequency": 123.191126,
      "InPlanePhaseEncodingDirection": "COL",
      "MRAcquisitionType": "2D",
      "MagneticFieldStrength": 3.0,
      "Manufacturer": "SIEMENS",
      "ManufacturerModelName": "Prisma",
      "Modality": "MR",
      "NumberOfAverages": 1.0,
      "NumberOfPhaseEncodingSteps": 105,
      "PercentPhaseFieldOfView": 100.0,
      "PercentSampling": 100.0,
      "PerformedProcedureStepStartTime": "084513.628000",
      "PhotometricInterpretation": "MONOCHROME2",
      "PixelBandwidth": 2465.0,
      "PixelRepresentation": 0,
      "PixelSpacing": [3.542857170105, 3.542857170105],
      "ProtocolName": "ep2d_p2_Task_3.5_measurment:237",
      "RepetitionTime": 2000.0,
      "Rows": 420,
      "SAR": 0.07915538405605,
      "SamplesPerPixel": 1,
      "ScanOptions": "FS",
      "ScanningSequence": "EP",
      "SequenceName": "*epfid2d1_70",
      "SequenceVariant": [
        "SK",
        "OSP"
],
      "SeriesDescription": "ep2d_p2_Task_3.5_measurment:237",
      "SeriesNumber": 11,
      "SeriesTime": "100209.570000",
      "SliceLocation": -36.495149216765,
      "SliceThickness": 3.5,
      "SmallestImagePixelValue": 0,
      "SoftwareVersions": "syngo MR E11",
      "SpacingBetweenSlices": 3.8500000143175,
      "SpecificCharacterSet": "ISO_IR 100",
      "StudyID": "1",
      "StudyTime": "084513.524000",
      "TransmitCoilName": "Body",
      "VariableFlipAngleFlag": "N",
      "WindowCenterWidthExplanation": "Algo1",
      "dBdt": 0.0},
    "slices": {}
  },
  "time": {
    "samples": {
      "AcquisitionNumber": [1, 2, 3, 4, 5, 6, 7, 8, 9, 10, 11, 12, 13, 14, 15, 16, 17, 18, 19, 20, 21, 22, 23, 24, 25, 26, 27, 28, 29, 30, 31, 32, 33, 34, 35, 36, 37, 38, 39, 40, 41, 42, 43, 44, 45, 46, 47, 48, 49, 50, 51, 52, 53, 54, 55, 56, 57, 58, 59, 60, 61, 62, 63, 64, 65, 66, 67, 68, 69, 70, 71, 72, 73, 74, 75, 76, 77, 78, 79, 80, 81, 82, 83, 84, 85, 86, 87, 88, 89, 90, 91, 92, 93, 94, 95, 96, 97, 98, 99, 100, 101, 102, 103, 104, 105, 106, 107, 108, 109, 110, 111, 112, 113, 114, 115, 116, 117, 118, 119, 120, 121, 122, 123, 124, 125, 126, 127, 128, 129, 130, 131, 132, 133, 134, 135, 136, 137, 138, 139, 140, 141, 142, 143, 144, 145, 146, 147, 148, 149, 150, 151, 152, 153, 154, 155, 156, 157, 158, 159, 160, 161, 162, 163, 164, 165, 166, 167, 168, 169, 170, 171, 172, 173, 174, 175, 176, 177, 178, 179, 180, 181, 182, 183, 184, 185, 186, 187, 188, 189, 190, 191, 192, 193, 194, 195, 196, 197, 198, 199, 200, 201, 202, 203, 204, 205, 206, 207, 208, 209, 210, 211, 212, 213, 214, 215, 216, 217, 218, 219, 220, 221, 222, 223, 224, 225, 226, 227, 228, 229, 230, 231, 232, 233, 234, 235, 236, 237],
      "AcquisitionTime": ["100159.427500", "100201.427500", "100203.427500", "100205.427500", "100207.427500", "100209.427500", "100211.427500", "100213.427500", "100215.427500", "100217.427500", "100219.427500", "100221.427500", "100223.427500", "100225.427500", "100227.427500", "100229.427500", "100231.427500", "100233.427500", "100235.427500", "100237.427500", "100239.427500", "100241.427500", "100243.427500", "100245.427500", "100247.427500", "100249.427500", "100251.427500", "100253.427500", "100255.427500", "100257.427500", "100259.427500", "100301.427500", "100303.427500", "100305.427500", "100307.427500", "100309.427500", "100311.427500", "100313.427500", "100315.427500", "100317.427500", "100319.427500", "100321.427500", "100323.427500", "100325.427500", "100327.427500", "100329.427500", "100331.427500", "100333.427500", "100335.427500", "100337.427500", "100339.427500", "100341.427500", "100343.427500", "100345.427500", "100347.427500", "100349.427500", "100351.427500", "100353.427500", "100355.427500", "100357.427500", "100359.427500", "100401.427500", "100403.427500", "100405.427500", "100407.427500", "100409.427500", "100411.427500", "100413.427500", "100415.427500", "100417.427500", "100419.427500", "100421.427500", "100423.427500", "100425.427500", "100427.427500", "100429.427500", "100431.427500", "100433.427500", "100435.427500", "100437.427500", "100439.427500", "100441.427500", "100443.427500", "100445.427500", "100447.427500", "100449.427500", "100451.427500", "100453.427500", "100455.427500", "100457.427500", "100459.427500", "100501.427500", "100503.427500", "100505.427500", "100507.427500", "100509.427500", "100511.427500", "100513.427500", "100515.427500", "100517.427500", "100519.427500", "100521.427500", "100523.427500", "100525.427500", "100527.427500", "100529.427500", "100531.427500", "100533.427500", "100535.427500", "100537.427500", "100539.427500", "100541.427500", "100543.427500", "100545.427500", "100547.427500", "100549.427500", "100551.427500", "100553.427500", "100555.427500", "100557.427500", "100559.427500", "100601.427500", "100603.427500", "100605.427500", "100607.427500", "100609.427500", "100611.427500", "100613.427500", "100615.427500", "100617.427500", "100619.427500", "100621.427500", "100623.427500", "100625.427500", "100627.427500", "100629.427500", "100631.427500", "100633.427500", "100635.427500", "100637.427500", "100639.427500", "100641.427500", "100643.427500", "100645.427500", "100647.427500", "100649.427500", "100651.427500", "100653.427500", "100655.427500", "100657.427500", "100659.427500", "100701.427500", "100703.427500", "100705.427500", "100707.427500", "100709.427500", "100711.427500", "100713.427500", "100715.427500", "100717.427500", "100719.427500", "100721.427500", "100723.427500", "100725.427500", "100727.427500", "100729.427500", "100731.427500", "100733.427500", "100735.427500", "100737.427500", "100739.427500", "100741.427500", "100743.427500", "100745.427500", "100747.427500", "100749.427500", "100751.427500", "100753.427500", "100755.427500", "100757.427500", "100759.427500", "100801.427500", "100803.427500", "100805.427500", "100807.427500", "100809.427500", "100811.427500", "100813.427500", "100815.427500", "100817.427500", "100819.427500", "100821.427500", "100823.427500", "100825.427500", "100827.427500", "100829.427500", "100831.427500", "100833.427500", "100835.427500", "100837.427500", "100839.427500", "100841.427500", "100843.427500", "100845.427500", "100847.427500", "100849.427500", "100851.427500", "100853.427500", "100855.427500", "100857.427500", "100859.427500", "100901.427500", "100903.427500", "100905.427500", "100907.427500", "100909.427500", "100911.427500", "100913.427500", "100915.427500", "100917.427500", "100919.427500", "100921.427500", "100923.427500", "100925.427500", "100927.427500", "100929.427500", "100931.427500", "100933.427500", "100935.427500", "100937.427500", "100939.427500", "100941.427500", "100943.427500", "100945.427500", "100947.427500", "100949.427500", "100951.427500"],
      "ContentTime": ["100209.574000", "100209.577000", "100209.579000", "100209.582000", "100209.584000", "100249.567000", "100249.570000", "100249.573000", "100249.577000", "100249.579000", "100249.582000", "100249.585000", "100249.588000", "100249.590000", "100249.593000", "100249.595000", "100249.598000", "100249.600000", "100249.602000", "100249.605000", "100249.607000", "100249.616000", "100249.618000", "100249.620000", "100249.623000", "100329.568000", "100329.570000", "100329.573000", "100329.575000", "100329.578000", "100329.580000", "100329.583000", "100329.585000", "100329.588000", "100329.590000", "100329.593000", "100329.595000", "100329.598000", "100329.600000", "100329.603000", "100329.605000", "100329.608000", "100329.610000", "100329.612000", "100329.615000", "100409.568000", "100409.571000", "100409.574000", "100409.576000", "100409.579000", "100409.581000", "100409.584000", "100409.586000", "100409.589000", "100409.591000", "100409.593000", "100409.596000", "100409.598000", "100409.601000", "100409.604000", "100409.606000", "100409.609000", "100409.611000", "100409.614000", "100409.616000", "100449.568000", "100449.571000", "100449.574000", "100449.576000", "100449.579000", "100449.581000", "100449.584000", "100449.586000", "100449.589000", "100449.591000", "100449.593000", "100449.596000", "100449.598000", "100449.601000", "100449.603000", "100449.606000", "100449.608000", "100449.611000", "100449.613000", "100449.616000", "100529.568000", "100529.571000", "100529.573000", "100529.576000", "100529.579000", "100529.582000", "100529.584000", "100529.587000", "100529.589000", "100529.592000", "100529.594000", "100529.597000", "100529.600000", "100529.602000", "100529.604000", "100529.607000", "100529.610000", "100529.612000", "100529.614000", "100529.617000", "100609.568000", "100609.571000", "100609.574000", "100609.576000", "100609.579000", "100609.581000", "100609.584000", "100609.586000", "100609.589000", "100609.592000", "100609.594000", "100609.597000", "100609.599000", "100609.602000", "100609.604000", "100609.607000", "100609.609000", "100609.611000", "100609.614000", "100609.616000", "100649.569000", "100649.571000", "100649.574000", "100649.577000", "100649.580000", "100649.582000", "100649.596000", "100649.599000", "100649.601000", "100649.604000", "100649.606000", "100649.609000", "100649.625000", "100649.628000", "100649.630000", "100649.642000", "100649.644000", "100649.647000", "100649.649000", "100649.652000", "100729.568000", "100729.570000", "100729.573000", "100729.575000", "100729.578000", "100729.580000", "100729.583000", "100729.585000", "100729.588000", "100729.590000", "100729.593000", "100729.595000", "100729.598000", "100729.601000", "100729.603000", "100729.606000", "100729.609000", "100729.611000", "100729.614000", "100729.617000", "100809.568000", "100809.571000", "100809.573000", "100809.576000", "100809.578000", "100809.581000", "100809.583000", "100809.586000", "100809.588000", "100809.591000", "100809.593000", "100809.596000", "100809.598000", "100809.601000", "100809.603000", "100809.606000", "100809.608000", "100809.610000", "100809.613000", "100809.615000", "100849.569000", "100849.571000", "100849.574000", "100849.576000", "100849.579000", "100849.581000", "100849.584000", "100849.586000", "100849.589000", "100849.591000", "100849.594000", "100849.596000", "100849.599000", "100849.601000", "100849.604000", "100849.606000", "100849.609000", "100849.611000", "100849.614000", "100849.616000", "100929.569000", "100929.571000", "100929.574000", "100929.576000", "100929.579000", "100929.581000", "100929.584000", "100929.586000", "100929.589000", "100929.591000", "100929.594000", "100929.596000", "100929.599000", "100929.602000", "100929.604000", "100929.606000", "100929.609000", "100929.611000", "100929.614000", "100929.616000", "100952.752000", "100952.755000", "100952.757000", "100952.760000", "100952.762000", "100952.765000", "100952.767000", "100952.770000", "100952.772000", "100952.775000", "100952.777000", "100952.780000"],
      "InstanceCreationTime": ["100209.574000", "100209.577000", "100209.579000", "100209.582000", "100209.584000", "100249.567000", "100249.570000", "100249.573000", "100249.577000", "100249.579000", "100249.582000", "100249.585000", "100249.588000", "100249.590000", "100249.593000", "100249.595000", "100249.598000", "100249.600000", "100249.602000", "100249.605000", "100249.607000", "100249.616000", "100249.618000", "100249.620000", "100249.623000", "100329.568000", "100329.570000", "100329.573000", "100329.575000", "100329.578000", "100329.580000", "100329.583000", "100329.585000", "100329.588000", "100329.590000", "100329.593000", "100329.595000", "100329.598000", "100329.600000", "100329.603000", "100329.605000", "100329.608000", "100329.610000", "100329.612000", "100329.615000", "100409.568000", "100409.571000", "100409.574000", "100409.576000", "100409.579000", "100409.581000", "100409.584000", "100409.586000", "100409.589000", "100409.591000", "100409.593000", "100409.596000", "100409.598000", "100409.601000", "100409.604000", "100409.606000", "100409.609000", "100409.611000", "100409.614000", "100409.616000", "100449.568000", "100449.571000", "100449.574000", "100449.576000", "100449.579000", "100449.581000", "100449.584000", "100449.586000", "100449.589000", "100449.591000", "100449.593000", "100449.596000", "100449.598000", "100449.601000", "100449.603000", "100449.606000", "100449.608000", "100449.611000", "100449.613000", "100449.616000", "100529.568000", "100529.571000", "100529.573000", "100529.576000", "100529.579000", "100529.582000", "100529.584000", "100529.587000", "100529.589000", "100529.592000", "100529.594000", "100529.597000", "100529.600000", "100529.602000", "100529.604000", "100529.607000", "100529.610000", "100529.612000", "100529.614000", "100529.617000", "100609.568000", "100609.571000", "100609.574000", "100609.576000", "100609.579000", "100609.581000", "100609.584000", "100609.586000", "100609.589000", "100609.592000", "100609.594000", "100609.597000", "100609.599000", "100609.602000", "100609.604000", "100609.607000", "100609.609000", "100609.611000", "100609.614000", "100609.616000", "100649.569000", "100649.571000", "100649.574000", "100649.577000", "100649.580000", "100649.582000", "100649.596000", "100649.599000", "100649.601000", "100649.604000", "100649.606000", "100649.609000", "100649.625000", "100649.628000", "100649.630000", "100649.642000", "100649.644000", "100649.647000", "100649.649000", "100649.652000", "100729.568000", "100729.570000", "100729.573000", "100729.575000", "100729.578000", "100729.580000", "100729.583000", "100729.585000", "100729.588000", "100729.590000", "100729.593000", "100729.595000", "100729.598000", "100729.601000", "100729.603000", "100729.606000", "100729.609000", "100729.611000", "100729.614000", "100729.617000", "100809.568000", "100809.571000", "100809.573000", "100809.576000", "100809.578000", "100809.581000", "100809.583000", "100809.586000", "100809.588000", "100809.591000", "100809.593000", "100809.596000", "100809.598000", "100809.601000", "100809.603000", "100809.606000", "100809.608000", "100809.610000", "100809.613000", "100809.615000", "100849.569000", "100849.571000", "100849.574000", "100849.576000", "100849.579000", "100849.581000", "100849.584000", "100849.586000", "100849.589000", "100849.591000", "100849.594000", "100849.596000", "100849.599000", "100849.601000", "100849.604000", "100849.606000", "100849.609000", "100849.611000", "100849.614000", "100849.616000", "100929.569000", "100929.571000", "100929.574000", "100929.576000", "100929.579000", "100929.581000", "100929.584000", "100929.586000", "100929.589000", "100929.591000", "100929.594000", "100929.596000", "100929.599000", "100929.602000", "100929.604000", "100929.606000", "100929.609000", "100929.611000", "100929.614000", "100929.616000", "100952.752000", "100952.755000", "100952.757000", "100952.760000", "100952.762000", "100952.765000", "100952.767000", "100952.770000", "100952.772000", "100952.775000", "100952.777000", "100952.780000"],
      "InstanceNumber": [1, 2, 3, 4, 5, 6, 7, 8, 9, 10, 11, 12, 13, 14, 15, 16, 17, 18, 19, 20, 21, 22, 23, 24, 25, 26, 27, 28, 29, 30, 31, 32, 33, 34, 35, 36, 37, 38, 39, 40, 41, 42, 43, 44, 45, 46, 47, 48, 49, 50, 51, 52, 53, 54, 55, 56, 57, 58, 59, 60, 61, 62, 63, 64, 65, 66, 67, 68, 69, 70, 71, 72, 73, 74, 75, 76, 77, 78, 79, 80, 81, 82, 83, 84, 85, 86, 87, 88, 89, 90, 91, 92, 93, 94, 95, 96, 97, 98, 99, 100, 101, 102, 103, 104, 105, 106, 107, 108, 109, 110, 111, 112, 113, 114, 115, 116, 117, 118, 119, 120, 121, 122, 123, 124, 125, 126, 127, 128, 129, 130, 131, 132, 133, 134, 135, 136, 137, 138, 139, 140, 141, 142, 143, 144, 145, 146, 147, 148, 149, 150, 151, 152, 153, 154, 155, 156, 157, 158, 159, 160, 161, 162, 163, 164, 165, 166, 167, 168, 169, 170, 171, 172, 173, 174, 175, 176, 177, 178, 179, 180, 181, 182, 183, 184, 185, 186, 187, 188, 189, 190, 191, 192, 193, 194, 195, 196, 197, 198, 199, 200, 201, 202, 203, 204, 205, 206, 207, 208, 209, 210, 211, 212, 213, 214, 215, 216, 217, 218, 219, 220, 221, 222, 223, 224, 225, 226, 227, 228, 229, 230, 231, 232, 233, 234, 235, 236, 237],
      "LargestImagePixelValue": [1580, 1627, 1651, 1901, 1560, 1575, 1877, 1713, 1675, 1822, 1574, 1584, 1576, 1577, 1589, 1619, 1719, 1606, 1647, 1670, 1576, 1584, 1610, 1585, 1927, 1659, 1571, 1574, 1676, 1786, 1565, 1771, 1565, 1702, 1676, 1745, 1770, 1776, 1600, 1577, 1686, 1844, 1579, 1593, 2236, 1596, 1595, 1600, 1746, 1764, 1600, 1829, 1768, 1602, 1882, 1732, 1573, 1584, 1592, 1592, 1926, 1598, 1607, 1588, 1617, 1633, 1596, 1587, 1643, 1576, 1604, 1596, 1621, 1603, 1599, 1610, 1651, 1673, 1874, 1658, 1583, 1588, 1823, 1838, 1603, 1565, 1760, 1563, 1613, 1572, 1641, 1569, 1565, 1585, 1727, 1793, 1595, 1614, 1590, 1583, 1583, 1579, 1749, 2024, 1611, 1601, 1604, 1704, 1590, 1654, 1599, 1619, 1599, 1912, 1585, 1602, 1603, 1612, 1856, 1582, 1568, 1582, 2051, 1619, 1623, 1647, 1712, 1585, 1583, 1689, 2000, 1817, 1587, 1905, 1653, 1594, 1703, 1601, 1571, 1887, 1569, 1574, 1610, 1627, 1585, 1780, 1667, 1639, 1606, 1680, 1631, 1580, 2037, 1596, 1606, 1611, 1906, 1744, 1618, 1665, 1594, 1818, 1598, 1599, 1602, 1612, 1729, 1599, 1598, 1625, 1600, 1598, 1601, 1600, 1599, 1994, 1597, 1591, 1619, 1913, 1648, 1763, 1874, 1642, 1615, 1622, 1865, 1600, 1516, 1792, 1565, 1650, 1623, 1849, 1697, 1563, 1757, 1570, 1610, 1571, 1762, 1579, 1651, 1586, 1684, 1574, 1657, 1627, 1562, 1662, 1666, 1570, 1836, 1663, 1581, 1613, 1640, 1814, 1603, 1588, 1887, 1569, 1574, 1582, 1993, 1571, 1622, 1580, 1684, 1628, 1677, 1812, 1857, 1564, 1570, 1569, 1568],
      "WindowCenter": [654.0, 655.0, 655.0, 655.0, 653.0, 654.0, 656.0, 655.0, 653.0, 654.0, 654.0, 653.0, 653.0, 654.0, 654.0, 654.0, 653.0, 654.0, 655.0, 654.0, 653.0, 654.0, 655.0, 654.0, 654.0, 653.0, 652.0, 653.0, 653.0, 653.0, 653.0, 653.0, 654.0, 655.0, 653.0, 652.0, 653.0, 653.0, 652.0, 653.0, 654.0, 653.0, 652.0, 654.0, 656.0, 652.0, 652.0, 655.0, 654.0, 653.0, 655.0, 655.0, 654.0, 653.0, 655.0, 653.0, 652.0, 652.0, 653.0, 653.0, 655.0, 652.0, 653.0, 653.0, 653.0, 652.0, 652.0, 653.0, 652.0, 653.0, 655.0, 653.0, 652.0, 653.0, 654.0, 653.0, 652.0, 653.0, 654.0, 652.0, 652.0, 653.0, 654.0, 653.0, 652.0, 653.0, 654.0, 652.0, 653.0, 653.0, 653.0, 652.0, 653.0, 654.0, 655.0, 654.0, 652.0, 653.0, 653.0, 653.0, 653.0, 654.0, 656.0, 656.0, 654.0, 653.0, 653.0, 653.0, 653.0, 653.0, 652.0, 652.0, 652.0, 652.0, 651.0, 652.0, 653.0, 653.0, 654.0, 653.0, 653.0, 653.0, 654.0, 652.0, 654.0, 653.0, 652.0, 652.0, 653.0, 654.0, 653.0, 653.0, 653.0, 653.0, 651.0, 652.0, 653.0, 652.0, 652.0, 654.0, 651.0, 652.0, 654.0, 653.0, 653.0, 653.0, 652.0, 652.0, 653.0, 653.0, 651.0, 651.0, 654.0, 651.0, 652.0, 653.0, 654.0, 653.0, 651.0, 651.0, 652.0, 653.0, 651.0, 652.0, 654.0, 654.0, 653.0, 653.0, 653.0, 653.0, 653.0, 654.0, 653.0, 653.0, 654.0, 654.0, 651.0, 652.0, 653.0, 653.0, 651.0, 652.0, 652.0, 652.0, 652.0, 652.0, 652.0, 651.0, 653.0, 652.0, 650.0, 652.0, 651.0, 651.0, 650.0, 650.0, 651.0, 649.0, 651.0, 653.0, 653.0, 652.0, 654.0, 654.0, 653.0, 653.0, 653.0, 653.0, 653.0, 654.0, 652.0, 653.0, 654.0, 653.0, 652.0, 651.0, 652.0, 653.0, 652.0, 653.0, 653.0, 652.0, 652.0, 652.0, 653.0, 652.0, 653.0, 652.0, 652.0, 653.0, 654.0, 653.0, 652.0, 652.0, 652.0, 653.0, 653.0],
      "WindowWidth": [1429.0, 1429.0, 1429.0, 1429.0, 1424.0, 1427.0, 1433.0, 1429.0, 1425.0, 1428.0, 1427.0, 1424.0, 1424.0, 1426.0, 1428.0, 1428.0, 1424.0, 1426.0, 1429.0, 1427.0, 1424.0, 1426.0, 1429.0, 1428.0, 1428.0, 1424.0, 1423.0, 1425.0, 1425.0, 1425.0, 1423.0, 1425.0, 1427.0, 1430.0, 1424.0, 1423.0, 1425.0, 1425.0, 1421.0, 1425.0, 1426.0, 1425.0, 1423.0, 1426.0, 1432.0, 1421.0, 1423.0, 1429.0, 1426.0, 1426.0, 1429.0, 1431.0, 1427.0, 1426.0, 1430.0, 1425.0, 1421.0, 1422.0, 1425.0, 1426.0, 1429.0, 1422.0, 1423.0, 1423.0, 1424.0, 1423.0, 1423.0, 1424.0, 1421.0, 1424.0, 1431.0, 1426.0, 1422.0, 1426.0, 1428.0, 1425.0, 1423.0, 1425.0, 1426.0, 1423.0, 1421.0, 1423.0, 1426.0, 1424.0, 1422.0, 1424.0, 1427.0, 1423.0, 1423.0, 1423.0, 1424.0, 1422.0, 1424.0, 1428.0, 1430.0, 1427.0, 1423.0, 1424.0, 1425.0, 1425.0, 1425.0, 1427.0, 1432.0, 1433.0, 1426.0, 1426.0, 1424.0, 1426.0, 1423.0, 1424.0, 1422.0, 1421.0, 1421.0, 1421.0, 1419.0, 1423.0, 1423.0, 1424.0, 1427.0, 1424.0, 1425.0, 1425.0, 1427.0, 1423.0, 1428.0, 1425.0, 1421.0, 1422.0, 1426.0, 1426.0, 1425.0, 1425.0, 1423.0, 1423.0, 1419.0, 1421.0, 1423.0, 1420.0, 1421.0, 1427.0, 1420.0, 1422.0, 1427.0, 1425.0, 1425.0, 1425.0, 1420.0, 1422.0, 1424.0, 1423.0, 1418.0, 1419.0, 1428.0, 1419.0, 1422.0, 1425.0, 1427.0, 1423.0, 1420.0, 1419.0, 1422.0, 1423.0, 1420.0, 1422.0, 1427.0, 1427.0, 1424.0, 1423.0, 1425.0, 1425.0, 1425.0, 1426.0, 1424.0, 1424.0, 1426.0, 1428.0, 1419.0, 1423.0, 1426.0, 1424.0, 1420.0, 1423.0, 1422.0, 1421.0, 1421.0, 1423.0, 1422.0, 1419.0, 1424.0, 1423.0, 1417.0, 1423.0, 1419.0, 1418.0, 1416.0, 1416.0, 1419.0, 1414.0, 1419.0, 1426.0, 1425.0, 1420.0, 1426.0, 1428.0, 1425.0, 1424.0, 1424.0, 1425.0, 1426.0, 1427.0, 1423.0, 1423.0, 1428.0, 1424.0, 1422.0, 1420.0, 1421.0, 1424.0, 1422.0, 1425.0, 1426.0, 1422.0, 1422.0, 1421.0, 1425.0, 1421.0, 1423.0, 1421.0, 1421.0, 1425.0, 1427.0, 1423.0, 1422.0, 1421.0, 1421.0, 1423.0, 1423.0]
    },
    "slices": {}
  }
}