{
  "AcquisitionMatrixPE": 70,
  "AcquisitionNumber": 1,
  "AcquisitionTime": "09:53:13.660000",
  "BandwidthPerPixelPhaseEncode": 38.873,
  "BaseResolution": 70,
  "BodyPartExamined": "HEAD",
  "ConsistencyInfo": "N4_VE11B_LATEST_20150530",
  "ConversionSoftware": "dcm2niix",
  "ConversionSoftwareVersion": "v1.0.20190410  GCC6.3.0",
  "DerivedVendorReportedEchoSpacing": 0.000489996,
  "DeviceSerialNumber": "66088",
  "DwellTime": 2.9e-06,
  "EchoTime": 0.03,
  "EchoTrainLength": 53,
  "EffectiveEchoSpacing": 0.000367497,
  "FlipAngle": 90,
  "ImageOrientationPatientDICOM": [0.99143, 0.0494897, 0.120901, 0.0207675, 0.853991, -0.519872],
  "ImageType": [
    "ORIGINAL",
    "PRIMARY",
    "M",
    "ND",
    "NORM",
    "MOSAIC"
],
  "ImagingFrequency": 123.191,
  "InPlanePhaseEncodingDirectionDICOM": "COL",
  "InstitutionAddress": "Street_StreetNo_City_District_IR_ZIP",
  "InstitutionName": "NBML",
  "InstitutionalDepartmentName": "Department",
  "MRAcquisitionType": "2D",
  "MagneticFieldStrength": 3,
  "Manufacturer": "Siemens",
  "ManufacturersModelName": "Prisma",
  "Modality": "MR",
  "ParallelReductionFactorInPlane": 2,
  "PartialFourier": 1,
  "PatientPosition": "HFS",
  "PercentPhaseFOV": 100,
  "PhaseEncodingDirection": "j-",
  "PhaseEncodingSteps": 105,
  "PhaseOversampling": 0.5,
  "PhaseResolution": 1,
  "PixelBandwidth": 2465,
  "ProcedureStepDescription": "NBML_Project_P-95001-Shirvaliloo",
  "ProtocolName": "ep2d_p2_Task_3.5_measurment:237",
  "PulseSequenceDetails": "%SiemensSeq%_ep2d_pace",
  "ReceiveCoilActiveElements": "HC1-7;NC1",
  "ReceiveCoilName": "HeadNeck_64",
  "ReconMatrixPE": 70,
  "RefLinesPE": 24,
  "RepetitionTime": 2,
  "SAR": 0.0791554,
  "ScanOptions": "FS",
  "ScanningSequence": "EP",
  "SequenceName": "_epfid2d1_70",
  "SequenceVariant": "SK_OSP",
  "SeriesDescription": "ep2d_p2_Task_3.5_measurment:237",
  "SeriesNumber": 10,
  "ShimSetting": [2609, -4461, -3208, 455, -38, 38, -167, 12],
  "SliceThickness": 3.5,
  "SliceTiming": [0.99, 0, 1.0475, 0.0575, 1.105, 0.115, 1.1625, 0.1725, 1.2225, 0.2325, 1.28, 0.29, 1.3375, 0.3475, 1.3975, 0.4075, 1.455, 0.465, 1.5125, 0.5225, 1.57, 0.5825, 1.63, 0.64, 1.6875, 0.6975, 1.745, 0.755, 1.805, 0.815, 1.8625, 0.8725, 1.92, 0.93],
  "SoftwareVersions": "syngo_MR_E11",
  "SpacingBetweenSlices": 3.85,
  "StationName": "AWP66088",
  "TaskName": "categorySelectivity",
  "TotalReadoutTime": 0.0253573,
  "TxRefAmp": 227.357,
  "dcmmeta_affine": [
    [-3.512495279312134, 0.073576420545578, 0.4965619146823883, 119.00239562988281],
    [-0.1753348857164383, 3.0255696773529053, -1.9940228462219238, -66.93009185791016],
    [0.42833656072616577, 1.8418338298797607, 3.2557332515716553, -102.29907989501953],
    [0.0, 0.0, 0.0, 1.0]
],
  "dcmmeta_reorient_transform": [
    [0.0, -1.0, 0.0, 69.0],
    [1.0, 0.0, 0.0, 0.0],
    [0.0, 0.0, 1.0, 0.0],
    [0.0, 0.0, 0.0, 1.0]
],
  "dcmmeta_shape": [70, 70, 34, 237],
  "dcmmeta_slice_dim": 2,
  "dcmmeta_version": 0.6,
  "global": {
    "const": {
      "AccessionNumber": "MB",
      "AcquisitionMatrix": [70, 0, 0, 70],
      "AngioFlag": "N",
      "BitsAllocated": 16,
      "BitsStored": 12,
      "BodyPartExamined": "HEAD",
      "Columns": 420,
      "EchoNumbers": 1,
      "EchoTime": 30.0,
      "EchoTrainLength": 53,
      "FlipAngle": 90.0,
      "HighBit": 11,
      "ImageOrientationPatient": [0.99143008383097, 0.04948968676734, 0.12090144655292, 0.02076753838126, 0.85399142399391, -0.5198724430997],
      "ImagePositionPatient": [-751.64170308241, -701.99250856771, 272.1494757462],
      "ImageType": [
        "ORIGINAL",
        "PRIMARY",
        "M",
        "ND",
        "NORM",
        "MOSAIC"
],
      "ImagedNucleus": "1H",
      "ImagingFrequency": 123.191125,
      "InPlanePhaseEncodingDirection": "COL",
      "MRAcquisitionType": "2D",
      "MagneticFieldStrength": 3.0,
      "Manufacturer": "SIEMENS",
      "ManufacturerModelName": "Prisma",
      "Modality": "MR",
      "NumberOfAverages": 1.0,
      "NumberOfPhaseEncodingSteps": 105,
      "PercentPhaseFieldOfView": 100.0,
      "PercentSampling": 100.0,
      "PerformedProcedureStepStartTime": "084513.628000",
      "PhotometricInterpretation": "MONOCHROME2",
      "PixelBandwidth": 2465.0,
      "PixelRepresentation": 0,
      "PixelSpacing": [3.542857170105, 3.542857170105],
      "ProtocolName": "ep2d_p2_Task_3.5_measurment:237",
      "RepetitionTime": 2000.0,
      "Rows": 420,
      "SAR": 0.07915538405605,
      "SamplesPerPixel": 1,
      "ScanOptions": "FS",
      "ScanningSequence": "EP",
      "SequenceName": "*epfid2d1_70",
      "SequenceVariant": [
        "SK",
        "OSP"
],
      "SeriesDescription": "ep2d_p2_Task_3.5_measurment:237",
      "SeriesNumber": 10,
      "SeriesTime": "095359.193000",
      "SliceLocation": -36.495149216765,
      "SliceThickness": 3.5,
      "SmallestImagePixelValue": 0,
      "SoftwareVersions": "syngo MR E11",
      "SpacingBetweenSlices": 3.8500000143175,
      "SpecificCharacterSet": "ISO_IR 100",
      "StudyID": "1",
      "StudyTime": "084513.524000",
      "TransmitCoilName": "Body",
      "VariableFlipAngleFlag": "N",
      "WindowCenterWidthExplanation": "Algo1",
      "dBdt": 0.0},
    "slices": {}
  },
  "time": {
    "samples": {
      "AcquisitionNumber": [1, 2, 3, 4, 5, 6, 7, 8, 9, 10, 11, 12, 13, 14, 15, 16, 17, 18, 19, 20, 21, 22, 23, 24, 25, 26, 27, 28, 29, 30, 31, 32, 33, 34, 35, 36, 37, 38, 39, 40, 41, 42, 43, 44, 45, 46, 47, 48, 49, 50, 51, 52, 53, 54, 55, 56, 57, 58, 59, 60, 61, 62, 63, 64, 65, 66, 67, 68, 69, 70, 71, 72, 73, 74, 75, 76, 77, 78, 79, 80, 81, 82, 83, 84, 85, 86, 87, 88, 89, 90, 91, 92, 93, 94, 95, 96, 97, 98, 99, 100, 101, 102, 103, 104, 105, 106, 107, 108, 109, 110, 111, 112, 113, 114, 115, 116, 117, 118, 119, 120, 121, 122, 123, 124, 125, 126, 127, 128, 129, 130, 131, 132, 133, 134, 135, 136, 137, 138, 139, 140, 141, 142, 143, 144, 145, 146, 147, 148, 149, 150, 151, 152, 153, 154, 155, 156, 157, 158, 159, 160, 161, 162, 163, 164, 165, 166, 167, 168, 169, 170, 171, 172, 173, 174, 175, 176, 177, 178, 179, 180, 181, 182, 183, 184, 185, 186, 187, 188, 189, 190, 191, 192, 193, 194, 195, 196, 197, 198, 199, 200, 201, 202, 203, 204, 205, 206, 207, 208, 209, 210, 211, 212, 213, 214, 215, 216, 217, 218, 219, 220, 221, 222, 223, 224, 225, 226, 227, 228, 229, 230, 231, 232, 233, 234, 235, 236, 237],
      "AcquisitionTime": ["095313.660000", "095315.660000", "095317.660000", "095319.660000", "095321.660000", "095323.660000", "095325.660000", "095327.660000", "095329.660000", "095331.660000", "095333.660000", "095335.660000", "095337.660000", "095339.660000", "095341.660000", "095343.660000", "095345.660000", "095347.660000", "095349.660000", "095351.660000", "095353.660000", "095355.660000", "095357.660000", "095359.660000", "095401.660000", "095403.660000", "095405.660000", "095407.660000", "095409.660000", "095411.660000", "095413.660000", "095415.660000", "095417.660000", "095419.660000", "095421.660000", "095423.660000", "095425.660000", "095427.660000", "095429.660000", "095431.660000", "095433.660000", "095435.660000", "095437.660000", "095439.660000", "095441.660000", "095443.660000", "095445.660000", "095447.660000", "095449.660000", "095451.660000", "095453.660000", "095455.660000", "095457.660000", "095459.660000", "095501.660000", "095503.660000", "095505.660000", "095507.660000", "095509.660000", "095511.660000", "095513.660000", "095515.660000", "095517.660000", "095519.660000", "095521.660000", "095523.660000", "095525.660000", "095527.660000", "095529.660000", "095531.660000", "095533.660000", "095535.660000", "095537.660000", "095539.660000", "095541.660000", "095543.660000", "095545.660000", "095547.660000", "095549.660000", "095551.660000", "095553.660000", "095555.660000", "095557.660000", "095559.660000", "095601.660000", "095603.660000", "095605.660000", "095607.660000", "095609.660000", "095611.660000", "095613.660000", "095615.660000", "095617.660000", "095619.660000", "095621.660000", "095623.660000", "095625.660000", "095627.660000", "095629.660000", "095631.660000", "095633.660000", "095635.660000", "095637.660000", "095639.660000", "095641.660000", "095643.660000", "095645.660000", "095647.660000", "095649.660000", "095651.660000", "095653.660000", "095655.660000", "095657.660000", "095659.660000", "095701.660000", "095703.660000", "095705.660000", "095707.660000", "095709.660000", "095711.660000", "095713.660000", "095715.660000", "095717.660000", "095719.660000", "095721.660000", "095723.660000", "095725.660000", "095727.660000", "095729.660000", "095731.660000", "095733.660000", "095735.660000", "095737.660000", "095739.660000", "095741.660000", "095743.660000", "095745.660000", "095747.660000", "095749.660000", "095751.660000", "095753.660000", "095755.660000", "095757.660000", "095759.660000", "095801.660000", "095803.660000", "095805.660000", "095807.660000", "095809.660000", "095811.660000", "095813.660000", "095815.660000", "095817.660000", "095819.660000", "095821.660000", "095823.660000", "095825.660000", "095827.660000", "095829.660000", "095831.660000", "095833.660000", "095835.660000", "095837.660000", "095839.660000", "095841.660000", "095843.660000", "095845.660000", "095847.660000", "095849.660000", "095851.660000", "095853.660000", "095855.660000", "095857.660000", "095859.660000", "095901.660000", "095903.660000", "095905.660000", "095907.660000", "095909.660000", "095911.660000", "095913.660000", "095915.660000", "095917.660000", "095919.660000", "095921.660000", "095923.660000", "095925.660000", "095927.660000", "095929.660000", "095931.660000", "095933.660000", "095935.660000", "095937.660000", "095939.660000", "095941.660000", "095943.660000", "095945.660000", "095947.660000", "095949.660000", "095951.660000", "095953.660000", "095955.660000", "095957.660000", "095959.660000", "100001.660000", "100003.660000", "100005.660000", "100007.660000", "100009.660000", "100011.660000", "100013.660000", "100015.660000", "100017.660000", "100019.660000", "100021.660000", "100023.660000", "100025.660000", "100027.660000", "100029.660000", "100031.660000", "100033.660000", "100035.660000", "100037.660000", "100039.660000", "100041.660000", "100043.660000", "100045.660000", "100047.660000", "100049.660000", "100051.660000", "100053.660000", "100055.660000", "100057.660000", "100059.660000", "100101.660000", "100103.660000", "100105.660000"],
      "ContentTime": ["095359.196000", "095359.200000", "095359.212000", "095359.215000", "095359.217000", "095359.220000", "095359.223000", "095359.226000", "095359.228000", "095359.230000", "095359.233000", "095359.235000", "095359.238000", "095359.240000", "095359.244000", "095359.246000", "095359.249000", "095359.252000", "095359.282000", "095359.284000", "095359.287000", "095359.289000", "095439.192000", "095439.195000", "095439.197000", "095439.200000", "095439.202000", "095439.205000", "095439.207000", "095439.209000", "095439.212000", "095439.214000", "095439.217000", "095439.219000", "095439.223000", "095439.226000", "095439.229000", "095439.231000", "095439.234000", "095439.236000", "095439.239000", "095439.241000", "095519.191000", "095519.194000", "095519.197000", "095519.199000", "095519.202000", "095519.204000", "095519.207000", "095519.209000", "095519.212000", "095519.214000", "095519.216000", "095519.219000", "095519.223000", "095519.225000", "095519.228000", "095519.230000", "095519.233000", "095519.235000", "095519.238000", "095519.240000", "095559.192000", "095559.194000", "095559.197000", "095559.199000", "095559.202000", "095559.204000", "095559.207000", "095559.209000", "095559.212000", "095559.214000", "095559.216000", "095559.219000", "095559.222000", "095559.225000", "095559.228000", "095559.230000", "095559.233000", "095559.235000", "095559.238000", "095559.241000", "095639.191000", "095639.195000", "095639.197000", "095639.200000", "095639.203000", "095639.205000", "095639.208000", "095639.211000", "095639.213000", "095639.216000", "095639.219000", "095639.222000", "095639.225000", "095639.227000", "095639.230000", "095639.232000", "095639.235000", "095639.238000", "095639.240000", "095639.243000", "095719.192000", "095719.194000", "095719.197000", "095719.199000", "095719.202000", "095719.204000", "095719.207000", "095719.209000", "095719.212000", "095719.214000", "095719.216000", "095719.219000", "095719.223000", "095719.225000", "095719.227000", "095719.230000", "095719.232000", "095719.235000", "095719.237000", "095719.240000", "095759.192000", "095759.195000", "095759.198000", "095759.201000", "095759.203000", "095759.206000", "095759.209000", "095759.211000", "095759.214000", "095759.217000", "095759.220000", "095759.224000", "095759.227000", "095759.229000", "095759.232000", "095759.235000", "095759.237000", "095759.241000", "095759.244000", "095759.247000", "095839.192000", "095839.195000", "095839.197000", "095839.200000", "095839.202000", "095839.205000", "095839.208000", "095839.210000", "095839.222000", "095839.225000", "095839.228000", "095839.230000", "095839.233000", "095839.236000", "095839.238000", "095839.241000", "095839.244000", "095839.247000", "095839.250000", "095839.252000", "095919.191000", "095919.194000", "095919.197000", "095919.199000", "095919.202000", "095919.204000", "095919.207000", "095919.209000", "095919.212000", "095919.214000", "095919.216000", "095919.220000", "095919.222000", "095919.225000", "095919.227000", "095919.230000", "095919.232000", "095919.235000", "095919.237000", "095919.240000", "095959.192000", "095959.195000", "095959.197000", "095959.200000", "095959.203000", "095959.205000", "095959.208000", "095959.210000", "095959.213000", "095959.215000", "095959.219000", "095959.222000", "095959.224000", "095959.227000", "095959.229000", "095959.232000", "095959.234000", "095959.237000", "095959.239000", "095959.242000", "100039.192000", "100039.195000", "100039.198000", "100039.200000", "100039.203000", "100039.205000", "100039.208000", "100039.210000", "100039.212000", "100039.224000", "100039.227000", "100039.229000", "100039.231000", "100039.234000", "100039.236000", "100039.239000", "100039.242000", "100039.245000", "100039.248000", "100039.250000", "100107.294000", "100107.306000", "100107.309000", "100107.312000", "100107.315000", "100107.318000", "100107.322000", "100107.324000", "100107.327000", "100107.331000", "100107.336000", "100107.339000", "100107.342000", "100107.345000", "100107.348000"],
      "InstanceCreationTime": ["095359.196000", "095359.200000", "095359.212000", "095359.215000", "095359.217000", "095359.220000", "095359.223000", "095359.226000", "095359.228000", "095359.230000", "095359.233000", "095359.235000", "095359.238000", "095359.240000", "095359.244000", "095359.246000", "095359.249000", "095359.252000", "095359.282000", "095359.284000", "095359.287000", "095359.289000", "095439.192000", "095439.195000", "095439.197000", "095439.200000", "095439.202000", "095439.205000", "095439.207000", "095439.209000", "095439.212000", "095439.214000", "095439.217000", "095439.219000", "095439.223000", "095439.226000", "095439.229000", "095439.231000", "095439.234000", "095439.236000", "095439.239000", "095439.241000", "095519.191000", "095519.194000", "095519.197000", "095519.199000", "095519.202000", "095519.204000", "095519.207000", "095519.209000", "095519.212000", "095519.214000", "095519.216000", "095519.219000", "095519.223000", "095519.225000", "095519.228000", "095519.230000", "095519.233000", "095519.235000", "095519.238000", "095519.240000", "095559.192000", "095559.194000", "095559.197000", "095559.199000", "095559.202000", "095559.204000", "095559.207000", "095559.209000", "095559.212000", "095559.214000", "095559.216000", "095559.219000", "095559.222000", "095559.225000", "095559.228000", "095559.230000", "095559.233000", "095559.235000", "095559.238000", "095559.241000", "095639.191000", "095639.195000", "095639.197000", "095639.200000", "095639.203000", "095639.205000", "095639.208000", "095639.211000", "095639.213000", "095639.216000", "095639.219000", "095639.222000", "095639.225000", "095639.227000", "095639.230000", "095639.232000", "095639.235000", "095639.238000", "095639.240000", "095639.243000", "095719.192000", "095719.194000", "095719.197000", "095719.199000", "095719.202000", "095719.204000", "095719.207000", "095719.209000", "095719.212000", "095719.214000", "095719.216000", "095719.219000", "095719.223000", "095719.225000", "095719.227000", "095719.230000", "095719.232000", "095719.235000", "095719.237000", "095719.240000", "095759.192000", "095759.195000", "095759.198000", "095759.201000", "095759.203000", "095759.206000", "095759.209000", "095759.211000", "095759.214000", "095759.217000", "095759.220000", "095759.224000", "095759.227000", "095759.229000", "095759.232000", "095759.235000", "095759.237000", "095759.241000", "095759.244000", "095759.247000", "095839.192000", "095839.195000", "095839.197000", "095839.200000", "095839.202000", "095839.205000", "095839.208000", "095839.210000", "095839.222000", "095839.225000", "095839.228000", "095839.230000", "095839.233000", "095839.236000", "095839.238000", "095839.241000", "095839.244000", "095839.247000", "095839.250000", "095839.252000", "095919.191000", "095919.194000", "095919.197000", "095919.199000", "095919.202000", "095919.204000", "095919.207000", "095919.209000", "095919.212000", "095919.214000", "095919.216000", "095919.220000", "095919.222000", "095919.225000", "095919.227000", "095919.230000", "095919.232000", "095919.235000", "095919.237000", "095919.240000", "095959.192000", "095959.195000", "095959.197000", "095959.200000", "095959.203000", "095959.205000", "095959.208000", "095959.210000", "095959.213000", "095959.215000", "095959.219000", "095959.222000", "095959.224000", "095959.227000", "095959.229000", "095959.232000", "095959.234000", "095959.237000", "095959.239000", "095959.242000", "100039.192000", "100039.195000", "100039.198000", "100039.200000", "100039.203000", "100039.205000", "100039.208000", "100039.210000", "100039.212000", "100039.224000", "100039.227000", "100039.229000", "100039.231000", "100039.234000", "100039.236000", "100039.239000", "100039.242000", "100039.245000", "100039.248000", "100039.250000", "100107.294000", "100107.306000", "100107.309000", "100107.312000", "100107.315000", "100107.318000", "100107.322000", "100107.324000", "100107.327000", "100107.331000", "100107.336000", "100107.339000", "100107.342000", "100107.345000", "100107.348000"],
      "InstanceNumber": [1, 2, 3, 4, 5, 6, 7, 8, 9, 10, 11, 12, 13, 14, 15, 16, 17, 18, 19, 20, 21, 22, 23, 24, 25, 26, 27, 28, 29, 30, 31, 32, 33, 34, 35, 36, 37, 38, 39, 40, 41, 42, 43, 44, 45, 46, 47, 48, 49, 50, 51, 52, 53, 54, 55, 56, 57, 58, 59, 60, 61, 62, 63, 64, 65, 66, 67, 68, 69, 70, 71, 72, 73, 74, 75, 76, 77, 78, 79, 80, 81, 82, 83, 84, 85, 86, 87, 88, 89, 90, 91, 92, 93, 94, 95, 96, 97, 98, 99, 100, 101, 102, 103, 104, 105, 106, 107, 108, 109, 110, 111, 112, 113, 114, 115, 116, 117, 118, 119, 120, 121, 122, 123, 124, 125, 126, 127, 128, 129, 130, 131, 132, 133, 134, 135, 136, 137, 138, 139, 140, 141, 142, 143, 144, 145, 146, 147, 148, 149, 150, 151, 152, 153, 154, 155, 156, 157, 158, 159, 160, 161, 162, 163, 164, 165, 166, 167, 168, 169, 170, 171, 172, 173, 174, 175, 176, 177, 178, 179, 180, 181, 182, 183, 184, 185, 186, 187, 188, 189, 190, 191, 192, 193, 194, 195, 196, 197, 198, 199, 200, 201, 202, 203, 204, 205, 206, 207, 208, 209, 210, 211, 212, 213, 214, 215, 216, 217, 218, 219, 220, 221, 222, 223, 224, 225, 226, 227, 228, 229, 230, 231, 232, 233, 234, 235, 236, 237],
      "LargestImagePixelValue": [1561, 1544, 1670, 1517, 1790, 1711, 1521, 1659, 1869, 1677, 1570, 1535, 1763, 1545, 1547, 1736, 1555, 1555, 1559, 1831, 1552, 1545, 1691, 1762, 1549, 1555, 1823, 1630, 1551, 1558, 1695, 1561, 1561, 1601, 1745, 1748, 1643, 1560, 1554, 1575, 1772, 1577, 1629, 1993, 1721, 1570, 1574, 1626, 1645, 1574, 1565, 1726, 1569, 1584, 1707, 1864, 1572, 1571, 1566, 1712, 1568, 1899, 1569, 1570, 1779, 1624, 1595, 1648, 1786, 1582, 1569, 1989, 1574, 1626, 1572, 1570, 1572, 1576, 1852, 1712, 1570, 1570, 1750, 1760, 1566, 1590, 1641, 2005, 1570, 1649, 1576, 2168, 1618, 1574, 1721, 1576, 1675, 1804, 1651, 1681, 1579, 1568, 1992, 1601, 1574, 1709, 1594, 1601, 1607, 1611, 1677, 1660, 1773, 1640, 1586, 1578, 1653, 1647, 1590, 1859, 1638, 1584, 1796, 1736, 1584, 1595, 2006, 1610, 1621, 2060, 1812, 1600, 1618, 1779, 1727, 1610, 1613, 1611, 1800, 1816, 1667, 1602, 1608, 1736, 1663, 1601, 1616, 1690, 1600, 1594, 1667, 1708, 1755, 1581, 1600, 1625, 1603, 1749, 1601, 1951, 1588, 1691, 1595, 1592, 1621, 1701, 1586, 1596, 1816, 1614, 1631, 1792, 1596, 1596, 1606, 1836, 1595, 1639, 1685, 1588, 1733, 1600, 1652, 1641, 1570, 1573, 1912, 1579, 1579, 1588, 1822, 1598, 1906, 1600, 1822, 1600, 1667, 1573, 1584, 1725, 1821, 1831, 1586, 1597, 1603, 1891, 1554, 1571, 1614, 1607, 1895, 1579, 1577, 1630, 2054, 1585, 1595, 1795, 1575, 1591, 1765, 1589, 1638, 1872, 1812, 1577, 1588, 1554, 1590, 1836, 1696, 1578, 1564, 1598, 1546, 1604, 1853],
      "WindowCenter": [654.0, 655.0, 655.0, 654.0, 655.0, 655.0, 654.0, 654.0, 654.0, 654.0, 654.0, 653.0, 654.0, 653.0, 654.0, 655.0, 653.0, 653.0, 654.0, 654.0, 653.0, 654.0, 655.0, 655.0, 653.0, 653.0, 654.0, 653.0, 653.0, 653.0, 654.0, 654.0, 653.0, 653.0, 655.0, 654.0, 654.0, 653.0, 651.0, 653.0, 654.0, 654.0, 653.0, 654.0, 653.0, 652.0, 653.0, 654.0, 654.0, 655.0, 655.0, 654.0, 653.0, 654.0, 655.0, 655.0, 654.0, 655.0, 654.0, 655.0, 654.0, 654.0, 654.0, 654.0, 655.0, 654.0, 652.0, 653.0, 654.0, 653.0, 654.0, 656.0, 655.0, 654.0, 654.0, 654.0, 653.0, 654.0, 654.0, 654.0, 653.0, 653.0, 655.0, 654.0, 653.0, 655.0, 655.0, 656.0, 654.0, 654.0, 654.0, 656.0, 653.0, 654.0, 654.0, 653.0, 654.0, 655.0, 653.0, 653.0, 653.0, 653.0, 656.0, 653.0, 653.0, 654.0, 653.0, 654.0, 654.0, 655.0, 654.0, 653.0, 654.0, 654.0, 653.0, 653.0, 655.0, 655.0, 654.0, 654.0, 653.0, 653.0, 654.0, 654.0, 654.0, 654.0, 656.0, 653.0, 653.0, 654.0, 653.0, 653.0, 655.0, 654.0, 654.0, 653.0, 654.0, 654.0, 656.0, 655.0, 653.0, 654.0, 655.0, 654.0, 653.0, 654.0, 654.0, 653.0, 653.0, 654.0, 656.0, 656.0, 655.0, 654.0, 655.0, 653.0, 653.0, 654.0, 653.0, 654.0, 652.0, 653.0, 653.0, 653.0, 653.0, 653.0, 651.0, 652.0, 653.0, 652.0, 654.0, 654.0, 653.0, 653.0, 654.0, 654.0, 653.0, 654.0, 654.0, 652.0, 654.0, 655.0, 655.0, 653.0, 653.0, 653.0, 653.0, 652.0, 655.0, 654.0, 653.0, 653.0, 656.0, 654.0, 654.0, 653.0, 653.0, 652.0, 653.0, 656.0, 656.0, 654.0, 653.0, 654.0, 654.0, 655.0, 654.0, 654.0, 654.0, 653.0, 655.0, 654.0, 654.0, 654.0, 654.0, 652.0, 654.0, 654.0, 652.0, 654.0, 654.0, 652.0, 655.0, 656.0, 654.0, 653.0, 654.0, 653.0, 653.0, 654.0, 655.0, 654.0, 653.0, 653.0, 653.0, 654.0, 656.0],
      "WindowWidth": [1428.0, 1430.0, 1429.0, 1427.0, 1431.0, 1431.0, 1427.0, 1428.0, 1427.0, 1427.0, 1427.0, 1426.0, 1427.0, 1424.0, 1426.0, 1430.0, 1425.0, 1424.0, 1426.0, 1429.0, 1424.0, 1426.0, 1431.0, 1431.0, 1425.0, 1425.0, 1428.0, 1426.0, 1425.0, 1424.0, 1429.0, 1427.0, 1424.0, 1426.0, 1431.0, 1428.0, 1427.0, 1424.0, 1420.0, 1425.0, 1428.0, 1426.0, 1425.0, 1429.0, 1423.0, 1423.0, 1425.0, 1427.0, 1428.0, 1432.0, 1430.0, 1427.0, 1424.0, 1428.0, 1430.0, 1431.0, 1428.0, 1429.0, 1428.0, 1430.0, 1426.0, 1427.0, 1426.0, 1428.0, 1430.0, 1426.0, 1423.0, 1425.0, 1428.0, 1424.0, 1427.0, 1434.0, 1429.0, 1427.0, 1426.0, 1428.0, 1426.0, 1428.0, 1428.0, 1426.0, 1424.0, 1425.0, 1429.0, 1428.0, 1426.0, 1429.0, 1431.0, 1434.0, 1427.0, 1426.0, 1427.0, 1434.0, 1424.0, 1426.0, 1428.0, 1424.0, 1428.0, 1429.0, 1423.0, 1425.0, 1425.0, 1425.0, 1433.0, 1426.0, 1423.0, 1426.0, 1425.0, 1428.0, 1428.0, 1429.0, 1427.0, 1425.0, 1427.0, 1426.0, 1424.0, 1426.0, 1429.0, 1429.0, 1428.0, 1428.0, 1426.0, 1425.0, 1428.0, 1426.0, 1427.0, 1427.0, 1432.0, 1426.0, 1424.0, 1426.0, 1423.0, 1424.0, 1430.0, 1428.0, 1426.0, 1425.0, 1428.0, 1426.0, 1433.0, 1432.0, 1425.0, 1427.0, 1431.0, 1428.0, 1425.0, 1427.0, 1427.0, 1426.0, 1424.0, 1427.0, 1433.0, 1434.0, 1431.0, 1428.0, 1430.0, 1425.0, 1425.0, 1427.0, 1425.0, 1428.0, 1420.0, 1426.0, 1424.0, 1423.0, 1425.0, 1425.0, 1420.0, 1423.0, 1424.0, 1422.0, 1428.0, 1428.0, 1425.0, 1425.0, 1426.0, 1427.0, 1424.0, 1428.0, 1428.0, 1423.0, 1427.0, 1429.0, 1429.0, 1424.0, 1425.0, 1425.0, 1424.0, 1422.0, 1430.0, 1428.0, 1425.0, 1423.0, 1433.0, 1428.0, 1428.0, 1425.0, 1425.0, 1422.0, 1424.0, 1432.0, 1433.0, 1428.0, 1423.0, 1427.0, 1429.0, 1430.0, 1428.0, 1427.0, 1426.0, 1425.0, 1430.0, 1426.0, 1427.0, 1426.0, 1428.0, 1422.0, 1425.0, 1427.0, 1421.0, 1427.0, 1428.0, 1423.0, 1429.0, 1432.0, 1428.0, 1423.0, 1426.0, 1425.0, 1424.0, 1426.0, 1429.0, 1428.0, 1425.0, 1423.0, 1424.0, 1427.0, 1433.0]
    },
    "slices": {}
  }
}