{
  "AcquisitionMatrixPE": 70,
  "AcquisitionNumber": 1,
  "AcquisitionTime": "09:36:6.535000",
  "BandwidthPerPixelPhaseEncode": 38.873,
  "BaseResolution": 70,
  "BodyPartExamined": "HEAD",
  "ConsistencyInfo": "N4_VE11B_LATEST_20150530",
  "ConversionSoftware": "dcm2niix",
  "ConversionSoftwareVersion": "v1.0.20190410  GCC6.3.0",
  "DerivedVendorReportedEchoSpacing": 0.000489996,
  "DeviceSerialNumber": "66088",
  "DwellTime": 2.9e-06,
  "EchoTime": 0.03,
  "EchoTrainLength": 53,
  "EffectiveEchoSpacing": 0.000367497,
  "FlipAngle": 90,
  "ImageOrientationPatientDICOM": [0.99143, 0.0494897, 0.120901, 0.0207675, 0.853991, -0.519872],
  "ImageType": [
    "ORIGINAL",
    "PRIMARY",
    "M",
    "ND",
    "NORM",
    "MOSAIC"
],
  "ImagingFrequency": 123.191,
  "InPlanePhaseEncodingDirectionDICOM": "COL",
  "InstitutionAddress": "Street_StreetNo_City_District_IR_ZIP",
  "InstitutionName": "NBML",
  "InstitutionalDepartmentName": "Department",
  "MRAcquisitionType": "2D",
  "MagneticFieldStrength": 3,
  "Manufacturer": "Siemens",
  "ManufacturersModelName": "Prisma",
  "Modality": "MR",
  "ParallelReductionFactorInPlane": 2,
  "PartialFourier": 1,
  "PatientPosition": "HFS",
  "PercentPhaseFOV": 100,
  "PhaseEncodingDirection": "j-",
  "PhaseEncodingSteps": 105,
  "PhaseOversampling": 0.5,
  "PhaseResolution": 1,
  "PixelBandwidth": 2465,
  "ProcedureStepDescription": "NBML_Project_P-95001-Shirvaliloo",
  "ProtocolName": "ep2d_p2_Task_3.5_measurment:237",
  "PulseSequenceDetails": "%SiemensSeq%_ep2d_pace",
  "ReceiveCoilActiveElements": "HC1-7;NC1",
  "ReceiveCoilName": "HeadNeck_64",
  "ReconMatrixPE": 70,
  "RefLinesPE": 24,
  "RepetitionTime": 2,
  "SAR": 0.0791554,
  "ScanOptions": "FS",
  "ScanningSequence": "EP",
  "SequenceName": "_epfid2d1_70",
  "SequenceVariant": "SK_OSP",
  "SeriesDescription": "ep2d_p2_Task_3.5_measurment:237",
  "SeriesNumber": 8,
  "ShimSetting": [2609, -4461, -3208, 455, -38, 38, -167, 12],
  "SliceThickness": 3.5,
  "SliceTiming": [0.99, 0, 1.0475, 0.0575, 1.105, 0.115, 1.1625, 0.1725, 1.2225, 0.2325, 1.28, 0.29, 1.3375, 0.3475, 1.3975, 0.4075, 1.455, 0.465, 1.5125, 0.5225, 1.57, 0.5825, 1.63, 0.64, 1.6875, 0.6975, 1.745, 0.755, 1.805, 0.815, 1.8625, 0.8725, 1.92, 0.93],
  "SoftwareVersions": "syngo_MR_E11",
  "SpacingBetweenSlices": 3.85,
  "StationName": "AWP66088",
  "TaskName": "categorySelectivity",
  "TotalReadoutTime": 0.0253573,
  "TxRefAmp": 227.357,
  "dcmmeta_affine": [
    [-3.512495279312134, 0.073576420545578, 0.4965619146823883, 119.00239562988281],
    [-0.1753348857164383, 3.0255696773529053, -1.9940228462219238, -66.93009185791016],
    [0.42833656072616577, 1.8418338298797607, 3.2557332515716553, -102.29907989501953],
    [0.0, 0.0, 0.0, 1.0]
],
  "dcmmeta_reorient_transform": [
    [0.0, -1.0, 0.0, 69.0],
    [1.0, 0.0, 0.0, 0.0],
    [0.0, 0.0, 1.0, 0.0],
    [0.0, 0.0, 0.0, 1.0]
],
  "dcmmeta_shape": [70, 70, 34, 237],
  "dcmmeta_slice_dim": 2,
  "dcmmeta_version": 0.6,
  "global": {
    "const": {
      "AccessionNumber": "MB",
      "AcquisitionMatrix": [70, 0, 0, 70],
      "AngioFlag": "N",
      "BitsAllocated": 16,
      "BitsStored": 12,
      "BodyPartExamined": "HEAD",
      "Columns": 420,
      "EchoNumbers": 1,
      "EchoTime": 30.0,
      "EchoTrainLength": 53,
      "FlipAngle": 90.0,
      "HighBit": 11,
      "ImageOrientationPatient": [0.99143008383097, 0.04948968676734, 0.12090144655292, 0.02076753838126, 0.85399142399391, -0.5198724430997],
      "ImagePositionPatient": [-751.64170308241, -701.99250856771, 272.1494757462],
      "ImageType": [
        "ORIGINAL",
        "PRIMARY",
        "M",
        "ND",
        "NORM",
        "MOSAIC"
],
      "ImagedNucleus": "1H",
      "ImagingFrequency": 123.191122,
      "InPlanePhaseEncodingDirection": "COL",
      "MRAcquisitionType": "2D",
      "MagneticFieldStrength": 3.0,
      "Manufacturer": "SIEMENS",
      "ManufacturerModelName": "Prisma",
      "Modality": "MR",
      "NumberOfAverages": 1.0,
      "NumberOfPhaseEncodingSteps": 105,
      "PercentPhaseFieldOfView": 100.0,
      "PercentSampling": 100.0,
      "PerformedProcedureStepStartTime": "084513.628000",
      "PhotometricInterpretation": "MONOCHROME2",
      "PixelBandwidth": 2465.0,
      "PixelRepresentation": 0,
      "PixelSpacing": [3.542857170105, 3.542857170105],
      "ProtocolName": "ep2d_p2_Task_3.5_measurment:237",
      "RepetitionTime": 2000.0,
      "Rows": 420,
      "SAR": 0.07915538405605,
      "SamplesPerPixel": 1,
      "ScanOptions": "FS",
      "ScanningSequence": "EP",
      "SequenceName": "*epfid2d1_70",
      "SequenceVariant": [
        "SK",
        "OSP"
],
      "SeriesDescription": "ep2d_p2_Task_3.5_measurment:237",
      "SeriesNumber": 8,
      "SeriesTime": "093649.570000",
      "SliceLocation": -36.495149216765,
      "SliceThickness": 3.5,
      "SmallestImagePixelValue": 0,
      "SoftwareVersions": "syngo MR E11",
      "SpacingBetweenSlices": 3.8500000143175,
      "SpecificCharacterSet": "ISO_IR 100",
      "StudyID": "1",
      "StudyTime": "084513.524000",
      "TransmitCoilName": "Body",
      "VariableFlipAngleFlag": "N",
      "WindowCenterWidthExplanation": "Algo1",
      "dBdt": 0.0},
    "slices": {}
  },
  "time": {
    "samples": {
      "AcquisitionNumber": [1, 2, 3, 4, 5, 6, 7, 8, 9, 10, 11, 12, 13, 14, 15, 16, 17, 18, 19, 20, 21, 22, 23, 24, 25, 26, 27, 28, 29, 30, 31, 32, 33, 34, 35, 36, 37, 38, 39, 40, 41, 42, 43, 44, 45, 46, 47, 48, 49, 50, 51, 52, 53, 54, 55, 56, 57, 58, 59, 60, 61, 62, 63, 64, 65, 66, 67, 68, 69, 70, 71, 72, 73, 74, 75, 76, 77, 78, 79, 80, 81, 82, 83, 84, 85, 86, 87, 88, 89, 90, 91, 92, 93, 94, 95, 96, 97, 98, 99, 100, 101, 102, 103, 104, 105, 106, 107, 108, 109, 110, 111, 112, 113, 114, 115, 116, 117, 118, 119, 120, 121, 122, 123, 124, 125, 126, 127, 128, 129, 130, 131, 132, 133, 134, 135, 136, 137, 138, 139, 140, 141, 142, 143, 144, 145, 146, 147, 148, 149, 150, 151, 152, 153, 154, 155, 156, 157, 158, 159, 160, 161, 162, 163, 164, 165, 166, 167, 168, 169, 170, 171, 172, 173, 174, 175, 176, 177, 178, 179, 180, 181, 182, 183, 184, 185, 186, 187, 188, 189, 190, 191, 192, 193, 194, 195, 196, 197, 198, 199, 200, 201, 202, 203, 204, 205, 206, 207, 208, 209, 210, 211, 212, 213, 214, 215, 216, 217, 218, 219, 220, 221, 222, 223, 224, 225, 226, 227, 228, 229, 230, 231, 232, 233, 234, 235, 236, 237],
      "AcquisitionTime": ["093606.535000", "093608.535000", "093610.535000", "093612.535000", "093614.535000", "093616.535000", "093618.535000", "093620.535000", "093622.535000", "093624.535000", "093626.535000", "093628.535000", "093630.535000", "093632.535000", "093634.535000", "093636.535000", "093638.535000", "093640.535000", "093642.535000", "093644.535000", "093646.535000", "093648.535000", "093650.535000", "093652.535000", "093654.535000", "093656.535000", "093658.535000", "093700.535000", "093702.535000", "093704.535000", "093706.535000", "093708.535000", "093710.535000", "093712.535000", "093714.535000", "093716.535000", "093718.535000", "093720.535000", "093722.535000", "093724.535000", "093726.535000", "093728.535000", "093730.535000", "093732.535000", "093734.535000", "093736.535000", "093738.535000", "093740.535000", "093742.535000", "093744.535000", "093746.535000", "093748.535000", "093750.535000", "093752.535000", "093754.535000", "093756.535000", "093758.535000", "093800.535000", "093802.535000", "093804.535000", "093806.535000", "093808.535000", "093810.535000", "093812.535000", "093814.535000", "093816.535000", "093818.535000", "093820.535000", "093822.535000", "093824.535000", "093826.535000", "093828.535000", "093830.535000", "093832.535000", "093834.535000", "093836.535000", "093838.535000", "093840.535000", "093842.535000", "093844.535000", "093846.535000", "093848.535000", "093850.535000", "093852.535000", "093854.535000", "093856.535000", "093858.535000", "093900.535000", "093902.535000", "093904.535000", "093906.535000", "093908.535000", "093910.535000", "093912.535000", "093914.535000", "093916.535000", "093918.535000", "093920.535000", "093922.535000", "093924.535000", "093926.535000", "093928.535000", "093930.535000", "093932.535000", "093934.535000", "093936.535000", "093938.535000", "093940.535000", "093942.535000", "093944.535000", "093946.535000", "093948.535000", "093950.535000", "093952.535000", "093954.535000", "093956.535000", "093958.535000", "094000.535000", "094002.535000", "094004.535000", "094006.535000", "094008.535000", "094010.535000", "094012.535000", "094014.535000", "094016.535000", "094018.535000", "094020.535000", "094022.535000", "094024.535000", "094026.535000", "094028.535000", "094030.535000", "094032.535000", "094034.535000", "094036.535000", "094038.535000", "094040.535000", "094042.535000", "094044.535000", "094046.535000", "094048.535000", "094050.535000", "094052.535000", "094054.535000", "094056.535000", "094058.535000", "094100.535000", "094102.535000", "094104.535000", "094106.535000", "094108.535000", "094110.535000", "094112.535000", "094114.535000", "094116.535000", "094118.535000", "094120.535000", "094122.535000", "094124.535000", "094126.535000", "094128.535000", "094130.535000", "094132.535000", "094134.535000", "094136.535000", "094138.535000", "094140.535000", "094142.535000", "094144.535000", "094146.535000", "094148.535000", "094150.535000", "094152.535000", "094154.535000", "094156.535000", "094158.535000", "094200.535000", "094202.535000", "094204.535000", "094206.535000", "094208.535000", "094210.535000", "094212.535000", "094214.535000", "094216.535000", "094218.535000", "094220.535000", "094222.535000", "094224.535000", "094226.535000", "094228.535000", "094230.535000", "094232.535000", "094234.535000", "094236.535000", "094238.535000", "094240.535000", "094242.535000", "094244.535000", "094246.535000", "094248.535000", "094250.535000", "094252.535000", "094254.535000", "094256.535000", "094258.535000", "094300.535000", "094302.535000", "094304.535000", "094306.535000", "094308.535000", "094310.535000", "094312.535000", "094314.535000", "094316.535000", "094318.535000", "094320.535000", "094322.535000", "094324.535000", "094326.535000", "094328.535000", "094330.535000", "094332.535000", "094334.535000", "094336.535000", "094338.535000", "094340.535000", "094342.535000", "094344.535000", "094346.535000", "094348.535000", "094350.535000", "094352.535000", "094354.535000", "094356.535000", "094358.535000"],
      "ContentTime": ["093649.573000", "093649.591000", "093649.593000", "093649.596000", "093649.598000", "093649.601000", "093649.603000", "093649.605000", "093649.608000", "093649.610000", "093649.613000", "093649.615000", "093649.618000", "093649.620000", "093649.622000", "093649.625000", "093649.627000", "093649.630000", "093649.632000", "093649.635000", "093649.637000", "093729.568000", "093729.570000", "093729.573000", "093729.575000", "093729.578000", "093729.580000", "093729.583000", "093729.585000", "093729.587000", "093729.597000", "093729.600000", "093729.602000", "093729.605000", "093729.607000", "093729.614000", "093729.617000", "093729.620000", "093729.622000", "093729.625000", "093729.627000", "093809.568000", "093809.571000", "093809.574000", "093809.576000", "093809.579000", "093809.581000", "093809.584000", "093809.587000", "093809.589000", "093809.592000", "093809.595000", "093809.597000", "093809.600000", "093809.602000", "093809.605000", "093809.608000", "093809.610000", "093809.613000", "093809.616000", "093809.618000", "093849.569000", "093849.572000", "093849.574000", "093849.577000", "093849.579000", "093849.582000", "093849.584000", "093849.587000", "093849.590000", "093849.592000", "093849.595000", "093849.597000", "093849.600000", "093849.603000", "093849.605000", "093849.608000", "093849.610000", "093849.613000", "093849.616000", "093849.618000", "093929.567000", "093929.571000", "093929.573000", "093929.575000", "093929.578000", "093929.580000", "093929.583000", "093929.585000", "093929.588000", "093929.590000", "093929.593000", "093929.595000", "093929.597000", "093929.600000", "093929.602000", "093929.613000", "093929.615000", "093929.626000", "093929.629000", "093929.631000", "094009.569000", "094009.572000", "094009.575000", "094009.577000", "094009.580000", "094009.583000", "094009.585000", "094009.588000", "094009.590000", "094009.593000", "094009.596000", "094009.598000", "094009.601000", "094009.604000", "094009.606000", "094009.609000", "094009.611000", "094009.614000", "094009.617000", "094009.619000", "094049.569000", "094049.572000", "094049.574000", "094049.576000", "094049.579000", "094049.581000", "094049.584000", "094049.586000", "094049.589000", "094049.591000", "094049.594000", "094049.596000", "094049.598000", "094049.601000", "094049.603000", "094049.606000", "094049.608000", "094049.611000", "094049.613000", "094049.616000", "094129.569000", "094129.571000", "094129.574000", "094129.576000", "094129.579000", "094129.581000", "094129.584000", "094129.586000", "094129.589000", "094129.591000", "094129.594000", "094129.596000", "094129.598000", "094129.601000", "094129.610000", "094129.613000", "094129.615000", "094129.618000", "094129.620000", "094129.623000", "094209.568000", "094209.570000", "094209.573000", "094209.575000", "094209.578000", "094209.580000", "094209.583000", "094209.585000", "094209.588000", "094209.590000", "094209.593000", "094209.595000", "094209.598000", "094209.600000", "094209.603000", "094209.606000", "094209.608000", "094209.611000", "094209.614000", "094209.616000", "094249.568000", "094249.571000", "094249.574000", "094249.576000", "094249.579000", "094249.581000", "094249.584000", "094249.586000", "094249.589000", "094249.591000", "094249.594000", "094249.596000", "094249.599000", "094249.601000", "094249.604000", "094249.606000", "094249.609000", "094249.611000", "094249.614000", "094249.616000", "094329.569000", "094329.572000", "094329.575000", "094329.577000", "094329.580000", "094329.583000", "094329.585000", "094329.588000", "094329.590000", "094329.593000", "094329.596000", "094329.598000", "094329.601000", "094329.604000", "094329.606000", "094329.609000", "094329.612000", "094329.614000", "094329.617000", "094329.620000", "094400.521000", "094400.525000", "094400.528000", "094400.531000", "094400.535000", "094400.539000", "094400.543000", "094400.546000", "094400.551000", "094400.556000", "094400.559000", "094400.563000", "094400.566000", "094400.570000", "094400.573000", "094400.576000"],
      "InstanceCreationTime": ["093649.573000", "093649.591000", "093649.593000", "093649.596000", "093649.598000", "093649.601000", "093649.603000", "093649.605000", "093649.608000", "093649.610000", "093649.613000", "093649.615000", "093649.618000", "093649.620000", "093649.622000", "093649.625000", "093649.627000", "093649.630000", "093649.632000", "093649.635000", "093649.637000", "093729.568000", "093729.570000", "093729.573000", "093729.575000", "093729.578000", "093729.580000", "093729.583000", "093729.585000", "093729.587000", "093729.597000", "093729.600000", "093729.602000", "093729.605000", "093729.607000", "093729.614000", "093729.617000", "093729.620000", "093729.622000", "093729.625000", "093729.627000", "093809.568000", "093809.571000", "093809.574000", "093809.576000", "093809.579000", "093809.581000", "093809.584000", "093809.587000", "093809.589000", "093809.592000", "093809.595000", "093809.597000", "093809.600000", "093809.602000", "093809.605000", "093809.608000", "093809.610000", "093809.613000", "093809.616000", "093809.618000", "093849.569000", "093849.572000", "093849.574000", "093849.577000", "093849.579000", "093849.582000", "093849.584000", "093849.587000", "093849.590000", "093849.592000", "093849.595000", "093849.597000", "093849.600000", "093849.603000", "093849.605000", "093849.608000", "093849.610000", "093849.613000", "093849.616000", "093849.618000", "093929.567000", "093929.571000", "093929.573000", "093929.575000", "093929.578000", "093929.580000", "093929.583000", "093929.585000", "093929.588000", "093929.590000", "093929.593000", "093929.595000", "093929.597000", "093929.600000", "093929.602000", "093929.613000", "093929.615000", "093929.626000", "093929.629000", "093929.631000", "094009.569000", "094009.572000", "094009.575000", "094009.577000", "094009.580000", "094009.583000", "094009.585000", "094009.588000", "094009.590000", "094009.593000", "094009.596000", "094009.598000", "094009.601000", "094009.604000", "094009.606000", "094009.609000", "094009.611000", "094009.614000", "094009.617000", "094009.619000", "094049.569000", "094049.572000", "094049.574000", "094049.576000", "094049.579000", "094049.581000", "094049.584000", "094049.586000", "094049.589000", "094049.591000", "094049.594000", "094049.596000", "094049.598000", "094049.601000", "094049.603000", "094049.606000", "094049.608000", "094049.611000", "094049.613000", "094049.616000", "094129.569000", "094129.571000", "094129.574000", "094129.576000", "094129.579000", "094129.581000", "094129.584000", "094129.586000", "094129.589000", "094129.591000", "094129.594000", "094129.596000", "094129.598000", "094129.601000", "094129.610000", "094129.613000", "094129.615000", "094129.618000", "094129.620000", "094129.623000", "094209.568000", "094209.570000", "094209.573000", "094209.575000", "094209.578000", "094209.580000", "094209.583000", "094209.585000", "094209.588000", "094209.590000", "094209.593000", "094209.595000", "094209.598000", "094209.600000", "094209.603000", "094209.606000", "094209.608000", "094209.611000", "094209.614000", "094209.616000", "094249.568000", "094249.571000", "094249.574000", "094249.576000", "094249.579000", "094249.581000", "094249.584000", "094249.586000", "094249.589000", "094249.591000", "094249.594000", "094249.596000", "094249.599000", "094249.601000", "094249.604000", "094249.606000", "094249.609000", "094249.611000", "094249.614000", "094249.616000", "094329.569000", "094329.572000", "094329.575000", "094329.577000", "094329.580000", "094329.583000", "094329.585000", "094329.588000", "094329.590000", "094329.593000", "094329.596000", "094329.598000", "094329.601000", "094329.604000", "094329.606000", "094329.609000", "094329.612000", "094329.614000", "094329.617000", "094329.620000", "094400.521000", "094400.525000", "094400.528000", "094400.531000", "094400.535000", "094400.539000", "094400.543000", "094400.546000", "094400.551000", "094400.556000", "094400.559000", "094400.563000", "094400.566000", "094400.570000", "094400.573000", "094400.576000"],
      "InstanceNumber": [1, 2, 3, 4, 5, 6, 7, 8, 9, 10, 11, 12, 13, 14, 15, 16, 17, 18, 19, 20, 21, 22, 23, 24, 25, 26, 27, 28, 29, 30, 31, 32, 33, 34, 35, 36, 37, 38, 39, 40, 41, 42, 43, 44, 45, 46, 47, 48, 49, 50, 51, 52, 53, 54, 55, 56, 57, 58, 59, 60, 61, 62, 63, 64, 65, 66, 67, 68, 69, 70, 71, 72, 73, 74, 75, 76, 77, 78, 79, 80, 81, 82, 83, 84, 85, 86, 87, 88, 89, 90, 91, 92, 93, 94, 95, 96, 97, 98, 99, 100, 101, 102, 103, 104, 105, 106, 107, 108, 109, 110, 111, 112, 113, 114, 115, 116, 117, 118, 119, 120, 121, 122, 123, 124, 125, 126, 127, 128, 129, 130, 131, 132, 133, 134, 135, 136, 137, 138, 139, 140, 141, 142, 143, 144, 145, 146, 147, 148, 149, 150, 151, 152, 153, 154, 155, 156, 157, 158, 159, 160, 161, 162, 163, 164, 165, 166, 167, 168, 169, 170, 171, 172, 173, 174, 175, 176, 177, 178, 179, 180, 181, 182, 183, 184, 185, 186, 187, 188, 189, 190, 191, 192, 193, 194, 195, 196, 197, 198, 199, 200, 201, 202, 203, 204, 205, 206, 207, 208, 209, 210, 211, 212, 213, 214, 215, 216, 217, 218, 219, 220, 221, 222, 223, 224, 225, 226, 227, 228, 229, 230, 231, 232, 233, 234, 235, 236, 237],
      "LargestImagePixelValue": [1597, 1561, 1698, 1571, 1771, 1569, 1574, 1658, 1755, 1700, 1568, 1558, 1561, 1869, 1726, 1566, 1560, 1564, 1579, 1575, 1808, 1575, 1840, 1563, 1570, 1574, 1572, 1848, 1562, 1559, 1565, 1575, 1566, 1661, 1569, 1801, 1566, 1571, 1671, 1570, 1604, 1564, 1568, 1562, 1895, 1559, 1565, 1569, 1779, 1559, 1570, 1579, 1828, 1618, 1560, 1556, 1821, 1563, 1561, 1777, 1592, 1556, 1624, 1963, 1611, 1557, 1815, 1569, 1676, 1556, 1569, 1560, 1554, 1660, 1564, 1665, 1775, 1563, 1571, 1833, 1558, 1548, 1857, 1768, 1554, 1565, 1743, 1816, 1559, 1555, 1559, 1562, 1761, 1662, 1570, 1562, 1942, 1557, 1568, 1588, 1834, 1550, 1793, 1569, 1788, 1562, 1571, 1873, 1571, 1743, 1579, 1586, 1590, 1567, 1575, 1777, 1576, 1564, 1556, 1585, 2016, 1573, 1663, 1584, 1582, 1598, 1606, 1580, 1616, 1598, 1582, 1603, 1594, 1592, 1687, 1613, 1618, 1604, 1597, 1595, 1600, 1724, 1775, 1600, 1619, 1591, 1617, 1622, 1633, 1921, 1635, 1623, 1627, 1988, 1645, 1642, 1659, 1643, 1637, 1654, 1639, 1630, 1636, 1633, 1632, 1632, 1641, 1867, 1641, 1643, 1633, 1644, 1644, 1652, 1638, 1640, 1881, 1646, 1641, 1901, 1646, 1634, 1645, 1634, 1618, 2018, 1652, 1644, 1662, 1641, 1637, 1727, 1634, 1632, 1669, 1652, 1635, 1676, 1634, 1649, 1684, 1637, 1651, 1698, 1637, 1650, 1642, 1641, 1645, 1642, 1648, 1642, 1636, 2067, 1631, 1654, 1644, 1643, 1641, 1630, 1624, 1690, 1641, 1635, 1728, 1713, 1628, 1651, 1631, 1633, 1639, 1607, 1977, 1627, 1632, 1630, 1630],
      "WindowCenter": [653.0, 655.0, 656.0, 655.0, 655.0, 655.0, 655.0, 654.0, 654.0, 654.0, 654.0, 655.0, 654.0, 656.0, 655.0, 653.0, 654.0, 654.0, 656.0, 656.0, 656.0, 654.0, 655.0, 653.0, 654.0, 654.0, 655.0, 655.0, 653.0, 653.0, 654.0, 655.0, 653.0, 653.0, 654.0, 656.0, 654.0, 654.0, 654.0, 654.0, 653.0, 653.0, 654.0, 653.0, 655.0, 653.0, 653.0, 654.0, 655.0, 654.0, 655.0, 656.0, 656.0, 653.0, 653.0, 653.0, 654.0, 653.0, 654.0, 655.0, 653.0, 653.0, 655.0, 655.0, 653.0, 654.0, 656.0, 654.0, 654.0, 653.0, 653.0, 654.0, 654.0, 653.0, 653.0, 654.0, 654.0, 653.0, 654.0, 653.0, 652.0, 654.0, 654.0, 652.0, 652.0, 654.0, 654.0, 654.0, 652.0, 653.0, 654.0, 653.0, 654.0, 652.0, 654.0, 654.0, 654.0, 652.0, 653.0, 655.0, 655.0, 653.0, 655.0, 654.0, 654.0, 653.0, 654.0, 655.0, 653.0, 655.0, 653.0, 653.0, 654.0, 654.0, 654.0, 654.0, 654.0, 655.0, 655.0, 655.0, 655.0, 653.0, 654.0, 653.0, 654.0, 654.0, 653.0, 653.0, 653.0, 654.0, 654.0, 654.0, 654.0, 654.0, 654.0, 653.0, 653.0, 654.0, 655.0, 655.0, 655.0, 655.0, 655.0, 654.0, 654.0, 654.0, 655.0, 654.0, 655.0, 655.0, 653.0, 653.0, 653.0, 655.0, 653.0, 652.0, 652.0, 653.0, 653.0, 653.0, 653.0, 653.0, 654.0, 654.0, 654.0, 654.0, 654.0, 654.0, 654.0, 654.0, 653.0, 653.0, 653.0, 653.0, 654.0, 653.0, 653.0, 653.0, 654.0, 654.0, 654.0, 654.0, 653.0, 653.0, 653.0, 654.0, 652.0, 653.0, 654.0, 653.0, 653.0, 654.0, 653.0, 654.0, 653.0, 654.0, 654.0, 652.0, 652.0, 654.0, 654.0, 653.0, 654.0, 654.0, 653.0, 653.0, 653.0, 653.0, 654.0, 654.0, 653.0, 654.0, 653.0, 655.0, 652.0, 653.0, 653.0, 653.0, 654.0, 653.0, 654.0, 654.0, 652.0, 653.0, 654.0, 653.0, 652.0, 654.0, 654.0, 653.0, 653.0, 653.0, 654.0, 652.0, 650.0, 652.0, 653.0],
      "WindowWidth": [1424.0, 1428.0, 1432.0, 1428.0, 1430.0, 1430.0, 1429.0, 1428.0, 1428.0, 1427.0, 1427.0, 1428.0, 1426.0, 1431.0, 1428.0, 1425.0, 1427.0, 1428.0, 1432.0, 1433.0, 1433.0, 1427.0, 1430.0, 1424.0, 1426.0, 1428.0, 1430.0, 1429.0, 1424.0, 1423.0, 1426.0, 1428.0, 1425.0, 1425.0, 1427.0, 1432.0, 1426.0, 1426.0, 1427.0, 1425.0, 1425.0, 1425.0, 1426.0, 1425.0, 1431.0, 1425.0, 1424.0, 1427.0, 1430.0, 1427.0, 1430.0, 1432.0, 1432.0, 1424.0, 1423.0, 1425.0, 1428.0, 1424.0, 1428.0, 1428.0, 1424.0, 1425.0, 1429.0, 1430.0, 1424.0, 1426.0, 1432.0, 1427.0, 1428.0, 1423.0, 1423.0, 1426.0, 1426.0, 1424.0, 1424.0, 1428.0, 1426.0, 1423.0, 1426.0, 1425.0, 1422.0, 1427.0, 1426.0, 1421.0, 1421.0, 1428.0, 1427.0, 1426.0, 1422.0, 1425.0, 1427.0, 1425.0, 1425.0, 1422.0, 1427.0, 1428.0, 1428.0, 1420.0, 1424.0, 1429.0, 1430.0, 1424.0, 1431.0, 1426.0, 1426.0, 1424.0, 1428.0, 1430.0, 1425.0, 1429.0, 1424.0, 1425.0, 1428.0, 1426.0, 1426.0, 1426.0, 1426.0, 1429.0, 1431.0, 1430.0, 1430.0, 1423.0, 1426.0, 1425.0, 1426.0, 1426.0, 1424.0, 1424.0, 1425.0, 1426.0, 1427.0, 1428.0, 1428.0, 1427.0, 1426.0, 1425.0, 1425.0, 1426.0, 1428.0, 1428.0, 1429.0, 1429.0, 1428.0, 1425.0, 1425.0, 1426.0, 1429.0, 1425.0, 1428.0, 1430.0, 1423.0, 1423.0, 1422.0, 1428.0, 1423.0, 1421.0, 1422.0, 1425.0, 1422.0, 1424.0, 1424.0, 1424.0, 1426.0, 1426.0, 1426.0, 1426.0, 1428.0, 1427.0, 1426.0, 1426.0, 1424.0, 1424.0, 1423.0, 1425.0, 1426.0, 1424.0, 1425.0, 1425.0, 1427.0, 1427.0, 1426.0, 1426.0, 1425.0, 1424.0, 1424.0, 1428.0, 1420.0, 1423.0, 1425.0, 1423.0, 1425.0, 1425.0, 1424.0, 1425.0, 1424.0, 1426.0, 1426.0, 1422.0, 1422.0, 1427.0, 1426.0, 1425.0, 1426.0, 1427.0, 1424.0, 1424.0, 1423.0, 1424.0, 1426.0, 1426.0, 1425.0, 1425.0, 1425.0, 1428.0, 1422.0, 1423.0, 1422.0, 1423.0, 1425.0, 1424.0, 1427.0, 1425.0, 1421.0, 1423.0, 1428.0, 1424.0, 1421.0, 1425.0, 1426.0, 1425.0, 1423.0, 1423.0, 1426.0, 1419.0, 1416.0, 1422.0, 1425.0]
    },
    "slices": {}
  }
}