{
  "AcquisitionMatrixPE": 70,
  "AcquisitionNumber": 1,
  "AcquisitionTime": "15:31:46.827500",
  "BandwidthPerPixelPhaseEncode": 38.873,
  "BaseResolution": 70,
  "BodyPartExamined": "HEAD",
  "ConsistencyInfo": "N4_VE11B_LATEST_20150530",
  "ConversionSoftware": "dcm2niix",
  "ConversionSoftwareVersion": "v1.0.20190410  GCC6.3.0",
  "DerivedVendorReportedEchoSpacing": 0.000489996,
  "DeviceSerialNumber": "66088",
  "DwellTime": 2.9e-06,
  "EchoTime": 0.03,
  "EchoTrainLength": 53,
  "EffectiveEchoSpacing": 0.000367497,
  "FlipAngle": 90,
  "ImageOrientationPatientDICOM": [0.998645, 0.00848814, -0.0513443, -0.0261504, 0.93485, -0.354077],
  "ImageType": [
    "ORIGINAL",
    "PRIMARY",
    "M",
    "ND",
    "NORM",
    "MOSAIC"
],
  "ImagingFrequency": 123.191,
  "InPlanePhaseEncodingDirectionDICOM": "COL",
  "InstitutionAddress": "Street_StreetNo_City_District_IR_ZIP",
  "InstitutionName": "NBML",
  "InstitutionalDepartmentName": "Department",
  "MRAcquisitionType": "2D",
  "MagneticFieldStrength": 3,
  "Manufacturer": "Siemens",
  "ManufacturersModelName": "Prisma",
  "Modality": "MR",
  "ParallelReductionFactorInPlane": 2,
  "PartialFourier": 1,
  "PatientPosition": "HFS",
  "PercentPhaseFOV": 100,
  "PhaseEncodingDirection": "j-",
  "PhaseEncodingSteps": 105,
  "PhaseOversampling": 0.5,
  "PhaseResolution": 1,
  "PixelBandwidth": 2465,
  "ProcedureStepDescription": "NBML_Project_P_96169_Ebrahiminiya-Khaliq",
  "ProtocolName": "ep2d_p2_Task_3.5_measurment:237",
  "PulseSequenceDetails": "%SiemensSeq%_ep2d_pace",
  "ReceiveCoilActiveElements": "HC1-7;NC1",
  "ReceiveCoilName": "HeadNeck_64",
  "ReconMatrixPE": 70,
  "RefLinesPE": 24,
  "RepetitionTime": 2,
  "SAR": 0.0798518,
  "ScanOptions": "FS",
  "ScanningSequence": "EP",
  "SequenceName": "_epfid2d1_70",
  "SequenceVariant": "SK_OSP",
  "SeriesDescription": "ep2d_p2_Task_3.5_measurment:237",
  "SeriesNumber": 9,
  "ShimSetting": [2592, -4495, -3268, 501, 59, -72, 0, 12],
  "SliceThickness": 3.5,
  "SliceTiming": [0.99, 0, 1.0475, 0.0575, 1.105, 0.1175, 1.165, 0.175, 1.2225, 0.2325, 1.28, 0.29, 1.34, 0.35, 1.3975, 0.4075, 1.455, 0.465, 1.515, 0.525, 1.5725, 0.5825, 1.63, 0.64, 1.6875, 0.6975, 1.7475, 0.7575, 1.805, 0.815, 1.8625, 0.8725, 1.9225, 0.9325],
  "SoftwareVersions": "syngo_MR_E11",
  "SpacingBetweenSlices": 3.85,
  "StationName": "AWP66088",
  "TaskName": "categorySelectivity",
  "TotalReadoutTime": 0.0253573,
  "TxRefAmp": 217.748,
  "dcmmeta_affine": [
    [-3.5380563735961914, -0.09264729917049408, -0.1732262223958969, 130.27708435058594],
    [-0.030072275549173355, 3.312041759490967, -1.3665196895599365, -83.10671997070312],
    [-0.18190567195415497, 1.2544453144073486, 3.595151662826538, -77.4163818359375],
    [0.0, 0.0, 0.0, 1.0]
],
  "dcmmeta_reorient_transform": [
    [0.0, -1.0, 0.0, 69.0],
    [1.0, 0.0, 0.0, 0.0],
    [0.0, 0.0, 1.0, 0.0],
    [0.0, 0.0, 0.0, 1.0]
],
  "dcmmeta_shape": [70, 70, 34, 237],
  "dcmmeta_slice_dim": 2,
  "dcmmeta_version": 0.6,
  "global": {
    "const": {
      "AccessionNumber": "M.BRZ",
      "AcquisitionMatrix": [70, 0, 0, 70],
      "AngioFlag": "N",
      "BitsAllocated": 16,
      "BitsStored": 12,
      "BodyPartExamined": "HEAD",
      "Columns": 420,
      "EchoNumbers": 1,
      "EchoTime": 30.0,
      "EchoTrainLength": 53,
      "FlipAngle": 90.0,
      "HighBit": 11,
      "ImageOrientationPatient": [0.99864493689366, 0.00848814237185, -0.0513443420031, -0.0261504463715, 0.93485047274574, -0.3540773189031],
      "ImagePositionPatient": [-726.83101435467, -730.29409984023, 260.50178291447],
      "ImageType": [
        "ORIGINAL",
        "PRIMARY",
        "M",
        "ND",
        "NORM",
        "MOSAIC"
],
      "ImagedNucleus": "1H",
      "ImagingFrequency": 123.191177,
      "InPlanePhaseEncodingDirection": "COL",
      "MRAcquisitionType": "2D",
      "MagneticFieldStrength": 3.0,
      "Manufacturer": "SIEMENS",
      "ManufacturerModelName": "Prisma",
      "Modality": "MR",
      "NumberOfAverages": 1.0,
      "NumberOfPhaseEncodingSteps": 105,
      "PercentPhaseFieldOfView": 100.0,
      "PercentSampling": 100.0,
      "PerformedProcedureStepStartTime": "143258.097000",
      "PhotometricInterpretation": "MONOCHROME2",
      "PixelBandwidth": 2465.0,
      "PixelRepresentation": 0,
      "PixelSpacing": [3.542857170105, 3.542857170105],
      "ProtocolName": "ep2d_p2_Task_3.5_measurment:237",
      "RepetitionTime": 2000.0,
      "Rows": 420,
      "SAR": 0.07985176631371,
      "SamplesPerPixel": 1,
      "ScanOptions": "FS",
      "ScanningSequence": "EP",
      "SequenceName": "*epfid2d1_70",
      "SequenceVariant": [
        "SK",
        "OSP"
],
      "SeriesDescription": "ep2d_p2_Task_3.5_measurment:237",
      "SeriesNumber": 9,
      "SeriesTime": "153227.353000",
      "SliceLocation": -48.655600486828,
      "SliceThickness": 3.5,
      "SmallestImagePixelValue": 0,
      "SoftwareVersions": "syngo MR E11",
      "SpacingBetweenSlices": 3.8499999362283,
      "SpecificCharacterSet": "ISO_IR 100",
      "StudyID": "1",
      "StudyTime": "143258.017000",
      "TransmitCoilName": "Body",
      "VariableFlipAngleFlag": "N",
      "WindowCenterWidthExplanation": "Algo1",
      "dBdt": 0.0},
    "slices": {}
  },
  "time": {
    "samples": {
      "AcquisitionNumber": [1, 2, 3, 4, 5, 6, 7, 8, 9, 10, 11, 12, 13, 14, 15, 16, 17, 18, 19, 20, 21, 22, 23, 24, 25, 26, 27, 28, 29, 30, 31, 32, 33, 34, 35, 36, 37, 38, 39, 40, 41, 42, 43, 44, 45, 46, 47, 48, 49, 50, 51, 52, 53, 54, 55, 56, 57, 58, 59, 60, 61, 62, 63, 64, 65, 66, 67, 68, 69, 70, 71, 72, 73, 74, 75, 76, 77, 78, 79, 80, 81, 82, 83, 84, 85, 86, 87, 88, 89, 90, 91, 92, 93, 94, 95, 96, 97, 98, 99, 100, 101, 102, 103, 104, 105, 106, 107, 108, 109, 110, 111, 112, 113, 114, 115, 116, 117, 118, 119, 120, 121, 122, 123, 124, 125, 126, 127, 128, 129, 130, 131, 132, 133, 134, 135, 136, 137, 138, 139, 140, 141, 142, 143, 144, 145, 146, 147, 148, 149, 150, 151, 152, 153, 154, 155, 156, 157, 158, 159, 160, 161, 162, 163, 164, 165, 166, 167, 168, 169, 170, 171, 172, 173, 174, 175, 176, 177, 178, 179, 180, 181, 182, 183, 184, 185, 186, 187, 188, 189, 190, 191, 192, 193, 194, 195, 196, 197, 198, 199, 200, 201, 202, 203, 204, 205, 206, 207, 208, 209, 210, 211, 212, 213, 214, 215, 216, 217, 218, 219, 220, 221, 222, 223, 224, 225, 226, 227, 228, 229, 230, 231, 232, 233, 234, 235, 236, 237],
      "AcquisitionTime": ["153146.827500", "153148.827500", "153150.827500", "153152.827500", "153154.827500", "153156.827500", "153158.827500", "153200.827500", "153202.827500", "153204.827500", "153206.827500", "153208.827500", "153210.827500", "153212.827500", "153214.827500", "153216.827500", "153218.827500", "153220.827500", "153222.827500", "153224.827500", "153226.827500", "153228.827500", "153230.827500", "153232.827500", "153234.827500", "153236.827500", "153238.827500", "153240.827500", "153242.827500", "153244.827500", "153246.827500", "153248.827500", "153250.827500", "153252.827500", "153254.827500", "153256.827500", "153258.827500", "153300.827500", "153302.827500", "153304.827500", "153306.827500", "153308.827500", "153310.827500", "153312.827500", "153314.827500", "153316.827500", "153318.827500", "153320.827500", "153322.827500", "153324.827500", "153326.827500", "153328.827500", "153330.827500", "153332.827500", "153334.827500", "153336.827500", "153338.827500", "153340.827500", "153342.827500", "153344.827500", "153346.827500", "153348.827500", "153350.827500", "153352.827500", "153354.827500", "153356.827500", "153358.827500", "153400.827500", "153402.827500", "153404.827500", "153406.827500", "153408.827500", "153410.827500", "153412.827500", "153414.827500", "153416.827500", "153418.827500", "153420.827500", "153422.827500", "153424.827500", "153426.827500", "153428.827500", "153430.827500", "153432.827500", "153434.827500", "153436.827500", "153438.827500", "153440.827500", "153442.827500", "153444.827500", "153446.827500", "153448.827500", "153450.827500", "153452.827500", "153454.827500", "153456.827500", "153458.827500", "153500.827500", "153502.827500", "153504.827500", "153506.827500", "153508.827500", "153510.827500", "153512.827500", "153514.827500", "153516.827500", "153518.827500", "153520.827500", "153522.827500", "153524.827500", "153526.827500", "153528.827500", "153530.827500", "153532.827500", "153534.827500", "153536.827500", "153538.827500", "153540.827500", "153542.827500", "153544.827500", "153546.827500", "153548.827500", "153550.827500", "153552.827500", "153554.827500", "153556.827500", "153558.827500", "153600.827500", "153602.827500", "153604.827500", "153606.827500", "153608.827500", "153610.827500", "153612.827500", "153614.827500", "153616.827500", "153618.827500", "153620.827500", "153622.827500", "153624.827500", "153626.827500", "153628.827500", "153630.827500", "153632.827500", "153634.827500", "153636.827500", "153638.827500", "153640.827500", "153642.827500", "153644.827500", "153646.827500", "153648.827500", "153650.827500", "153652.827500", "153654.827500", "153656.827500", "153658.827500", "153700.827500", "153702.827500", "153704.827500", "153706.827500", "153708.827500", "153710.827500", "153712.827500", "153714.827500", "153716.827500", "153718.827500", "153720.827500", "153722.827500", "153724.827500", "153726.827500", "153728.827500", "153730.827500", "153732.827500", "153734.827500", "153736.827500", "153738.827500", "153740.827500", "153742.827500", "153744.827500", "153746.827500", "153748.827500", "153750.827500", "153752.827500", "153754.827500", "153756.827500", "153758.827500", "153800.827500", "153802.827500", "153804.827500", "153806.827500", "153808.827500", "153810.827500", "153812.827500", "153814.827500", "153816.827500", "153818.827500", "153820.827500", "153822.827500", "153824.827500", "153826.827500", "153828.827500", "153830.827500", "153832.827500", "153834.827500", "153836.827500", "153838.827500", "153840.827500", "153842.827500", "153844.827500", "153846.827500", "153848.827500", "153850.827500", "153852.827500", "153854.827500", "153856.827500", "153858.827500", "153900.827500", "153902.827500", "153904.827500", "153906.827500", "153908.827500", "153910.827500", "153912.827500", "153914.827500", "153916.827500", "153918.827500", "153920.827500", "153922.827500", "153924.827500", "153926.827500", "153928.827500", "153930.827500", "153932.827500", "153934.827500", "153936.827500", "153938.827500"],
      "ContentTime": ["153227.356000", "153227.359000", "153227.362000", "153227.364000", "153227.367000", "153227.369000", "153227.371000", "153227.374000", "153227.376000", "153227.379000", "153227.381000", "153227.383000", "153227.386000", "153227.388000", "153227.391000", "153227.394000", "153227.396000", "153227.399000", "153227.401000", "153227.415000", "153307.352000", "153307.356000", "153307.359000", "153307.362000", "153307.365000", "153307.378000", "153307.381000", "153307.384000", "153307.387000", "153307.391000", "153307.394000", "153307.397000", "153307.400000", "153307.403000", "153307.416000", "153307.419000", "153307.422000", "153307.425000", "153307.428000", "153307.431000", "153347.351000", "153347.354000", "153347.358000", "153347.361000", "153347.364000", "153347.367000", "153347.370000", "153347.373000", "153347.376000", "153347.380000", "153347.383000", "153347.386000", "153347.389000", "153347.398000", "153347.401000", "153347.405000", "153347.408000", "153347.411000", "153347.414000", "153347.417000", "153407.351000", "153407.354000", "153407.357000", "153407.360000", "153407.363000", "153407.365000", "153407.368000", "153407.371000", "153407.373000", "153407.376000", "153447.352000", "153447.355000", "153447.358000", "153447.361000", "153447.365000", "153447.368000", "153447.371000", "153447.374000", "153447.378000", "153447.381000", "153447.384000", "153447.388000", "153447.395000", "153447.398000", "153447.401000", "153447.404000", "153447.408000", "153447.411000", "153447.415000", "153447.417000", "153527.352000", "153527.356000", "153527.359000", "153527.363000", "153527.366000", "153527.369000", "153527.372000", "153527.376000", "153527.380000", "153527.382000", "153527.385000", "153527.388000", "153527.391000", "153527.394000", "153527.398000", "153527.401000", "153527.404000", "153527.407000", "153527.410000", "153527.413000", "153607.351000", "153607.354000", "153607.357000", "153607.360000", "153607.363000", "153607.367000", "153607.370000", "153607.373000", "153607.376000", "153607.379000", "153607.382000", "153607.385000", "153607.388000", "153607.392000", "153607.395000", "153607.398000", "153607.401000", "153607.404000", "153607.407000", "153607.410000", "153647.352000", "153647.357000", "153647.360000", "153647.363000", "153647.367000", "153647.370000", "153647.373000", "153647.376000", "153647.380000", "153647.383000", "153647.386000", "153647.389000", "153647.393000", "153647.396000", "153647.400000", "153647.403000", "153647.407000", "153647.410000", "153647.413000", "153647.416000", "153727.352000", "153727.355000", "153727.357000", "153727.360000", "153727.363000", "153727.365000", "153727.368000", "153727.370000", "153727.373000", "153727.376000", "153727.378000", "153727.381000", "153727.383000", "153727.386000", "153727.389000", "153727.391000", "153727.394000", "153727.397000", "153727.399000", "153727.402000", "153807.351000", "153807.354000", "153807.357000", "153807.360000", "153807.363000", "153807.366000", "153807.370000", "153807.373000", "153807.376000", "153807.379000", "153807.383000", "153807.386000", "153807.389000", "153807.392000", "153807.395000", "153807.398000", "153807.403000", "153807.407000", "153807.410000", "153807.413000", "153847.351000", "153847.355000", "153847.358000", "153847.361000", "153847.364000", "153847.368000", "153847.371000", "153847.374000", "153847.378000", "153847.381000", "153847.384000", "153847.387000", "153847.391000", "153847.394000", "153847.397000", "153847.400000", "153847.403000", "153847.406000", "153847.409000", "153847.412000", "153927.352000", "153927.355000", "153927.357000", "153927.360000", "153927.363000", "153927.365000", "153927.368000", "153927.370000", "153927.373000", "153927.376000", "153927.378000", "153927.381000", "153927.384000", "153927.386000", "153927.389000", "153927.391000", "153927.394000", "153927.397000", "153927.399000", "153927.402000", "153940.532000", "153940.535000", "153940.538000", "153940.540000", "153940.543000", "153940.546000", "153940.548000"],
      "InstanceCreationTime": ["153227.356000", "153227.359000", "153227.362000", "153227.364000", "153227.367000", "153227.369000", "153227.371000", "153227.374000", "153227.376000", "153227.379000", "153227.381000", "153227.383000", "153227.386000", "153227.388000", "153227.391000", "153227.394000", "153227.396000", "153227.399000", "153227.401000", "153227.415000", "153307.352000", "153307.356000", "153307.359000", "153307.362000", "153307.365000", "153307.378000", "153307.381000", "153307.384000", "153307.387000", "153307.391000", "153307.394000", "153307.397000", "153307.400000", "153307.403000", "153307.416000", "153307.419000", "153307.422000", "153307.425000", "153307.428000", "153307.431000", "153347.351000", "153347.354000", "153347.358000", "153347.361000", "153347.364000", "153347.367000", "153347.370000", "153347.373000", "153347.376000", "153347.380000", "153347.383000", "153347.386000", "153347.389000", "153347.398000", "153347.401000", "153347.405000", "153347.408000", "153347.411000", "153347.414000", "153347.417000", "153407.351000", "153407.354000", "153407.357000", "153407.360000", "153407.363000", "153407.365000", "153407.368000", "153407.371000", "153407.373000", "153407.376000", "153447.352000", "153447.355000", "153447.358000", "153447.361000", "153447.365000", "153447.368000", "153447.371000", "153447.374000", "153447.378000", "153447.381000", "153447.384000", "153447.388000", "153447.395000", "153447.398000", "153447.401000", "153447.404000", "153447.408000", "153447.411000", "153447.415000", "153447.417000", "153527.352000", "153527.356000", "153527.359000", "153527.363000", "153527.366000", "153527.369000", "153527.372000", "153527.376000", "153527.380000", "153527.382000", "153527.385000", "153527.388000", "153527.391000", "153527.394000", "153527.398000", "153527.401000", "153527.404000", "153527.407000", "153527.410000", "153527.413000", "153607.351000", "153607.354000", "153607.357000", "153607.360000", "153607.363000", "153607.367000", "153607.370000", "153607.373000", "153607.376000", "153607.379000", "153607.382000", "153607.385000", "153607.388000", "153607.392000", "153607.395000", "153607.398000", "153607.401000", "153607.404000", "153607.407000", "153607.410000", "153647.352000", "153647.357000", "153647.360000", "153647.363000", "153647.367000", "153647.370000", "153647.373000", "153647.376000", "153647.380000", "153647.383000", "153647.386000", "153647.389000", "153647.393000", "153647.396000", "153647.400000", "153647.403000", "153647.407000", "153647.410000", "153647.413000", "153647.416000", "153727.352000", "153727.355000", "153727.357000", "153727.360000", "153727.363000", "153727.365000", "153727.368000", "153727.370000", "153727.373000", "153727.376000", "153727.378000", "153727.381000", "153727.383000", "153727.386000", "153727.389000", "153727.391000", "153727.394000", "153727.397000", "153727.399000", "153727.402000", "153807.351000", "153807.354000", "153807.357000", "153807.360000", "153807.363000", "153807.366000", "153807.370000", "153807.373000", "153807.376000", "153807.379000", "153807.383000", "153807.386000", "153807.389000", "153807.392000", "153807.395000", "153807.398000", "153807.403000", "153807.407000", "153807.410000", "153807.413000", "153847.351000", "153847.355000", "153847.358000", "153847.361000", "153847.364000", "153847.368000", "153847.371000", "153847.374000", "153847.378000", "153847.381000", "153847.384000", "153847.387000", "153847.391000", "153847.394000", "153847.397000", "153847.400000", "153847.403000", "153847.406000", "153847.409000", "153847.412000", "153927.352000", "153927.355000", "153927.357000", "153927.360000", "153927.363000", "153927.365000", "153927.368000", "153927.370000", "153927.373000", "153927.376000", "153927.378000", "153927.381000", "153927.384000", "153927.386000", "153927.389000", "153927.391000", "153927.394000", "153927.397000", "153927.399000", "153927.402000", "153940.532000", "153940.535000", "153940.538000", "153940.540000", "153940.543000", "153940.546000", "153940.548000"],
      "InstanceNumber": [1, 2, 3, 4, 5, 6, 7, 8, 9, 10, 11, 12, 13, 14, 15, 16, 17, 18, 19, 20, 21, 22, 23, 24, 25, 26, 27, 28, 29, 30, 31, 32, 33, 34, 35, 36, 37, 38, 39, 40, 41, 42, 43, 44, 45, 46, 47, 48, 49, 50, 51, 52, 53, 54, 55, 56, 57, 58, 59, 60, 61, 62, 63, 64, 65, 66, 67, 68, 69, 70, 71, 72, 73, 74, 75, 76, 77, 78, 79, 80, 81, 82, 83, 84, 85, 86, 87, 88, 89, 90, 91, 92, 93, 94, 95, 96, 97, 98, 99, 100, 101, 102, 103, 104, 105, 106, 107, 108, 109, 110, 111, 112, 113, 114, 115, 116, 117, 118, 119, 120, 121, 122, 123, 124, 125, 126, 127, 128, 129, 130, 131, 132, 133, 134, 135, 136, 137, 138, 139, 140, 141, 142, 143, 144, 145, 146, 147, 148, 149, 150, 151, 152, 153, 154, 155, 156, 157, 158, 159, 160, 161, 162, 163, 164, 165, 166, 167, 168, 169, 170, 171, 172, 173, 174, 175, 176, 177, 178, 179, 180, 181, 182, 183, 184, 185, 186, 187, 188, 189, 190, 191, 192, 193, 194, 195, 196, 197, 198, 199, 200, 201, 202, 203, 204, 205, 206, 207, 208, 209, 210, 211, 212, 213, 214, 215, 216, 217, 218, 219, 220, 221, 222, 223, 224, 225, 226, 227, 228, 229, 230, 231, 232, 233, 234, 235, 236, 237],
      "LargestImagePixelValue": [2604, 2296, 2512, 1688, 1639, 1910, 1497, 2512, 2285, 2187, 1812, 2137, 1532, 1483, 1924, 1554, 2322, 1533, 1520, 1566, 1904, 2380, 1987, 2229, 1526, 1567, 1544, 2359, 1575, 2387, 1946, 1882, 2337, 2353, 2444, 2323, 2030, 1779, 2390, 1509, 1558, 1519, 1869, 1820, 2416, 1534, 1737, 1551, 2107, 1564, 2129, 1489, 2216, 1654, 2206, 1962, 2450, 2523, 2431, 2206, 1566, 1543, 1548, 1504, 1621, 1490, 1703, 1573, 1735, 2337, 2072, 2534, 1669, 2278, 1562, 2326, 1497, 1643, 1467, 1806, 1535, 2104, 1518, 2234, 1552, 2069, 1506, 1996, 1800, 2191, 2606, 2124, 2419, 2206, 1522, 2153, 1564, 1511, 1508, 1581, 2385, 1940, 2353, 2100, 1546, 1880, 1499, 1904, 1539, 1560, 1484, 2429, 2227, 2123, 1565, 1843, 1625, 2105, 1836, 1592, 2431, 2034, 2080, 1492, 1578, 1510, 1573, 1560, 2189, 2443, 2380, 1539, 1587, 1546, 2092, 2057, 1882, 2187, 1499, 1551, 1493, 1860, 2192, 2432, 2179, 1606, 1536, 1493, 1565, 2170, 2242, 2173, 2354, 1596, 1613, 1512, 1533, 1583, 1571, 2142, 2078, 2113, 2511, 2249, 2411, 2250, 2121, 1514, 1525, 1463, 1687, 1540, 1491, 1659, 1562, 1875, 2041, 2557, 2299, 2330, 2413, 2014, 1503, 1479, 1512, 1591, 1528, 2441, 2442, 1930, 2179, 1558, 1490, 1767, 1522, 1582, 1520, 2099, 2098, 2290, 1587, 1874, 1559, 1999, 1514, 2192, 2197, 2181, 1668, 1555, 1809, 2355, 2198, 2015, 2042, 1599, 1475, 1575, 1531, 2031, 1923, 1919, 1535, 1864, 2453, 2225, 2382, 2077, 1536, 1599, 1545, 1479, 1701, 1520, 2170, 2114, 2368],
      "WindowCenter": [634.0, 632.0, 631.0, 629.0, 630.0, 632.0, 628.0, 632.0, 629.0, 626.0, 625.0, 627.0, 625.0, 626.0, 630.0, 628.0, 631.0, 628.0, 629.0, 630.0, 632.0, 632.0, 631.0, 632.0, 629.0, 631.0, 630.0, 633.0, 631.0, 633.0, 631.0, 630.0, 631.0, 632.0, 629.0, 629.0, 628.0, 627.0, 630.0, 627.0, 628.0, 628.0, 631.0, 630.0, 632.0, 629.0, 630.0, 629.0, 631.0, 633.0, 632.0, 629.0, 632.0, 629.0, 632.0, 630.0, 631.0, 630.0, 628.0, 626.0, 623.0, 624.0, 625.0, 625.0, 628.0, 628.0, 630.0, 630.0, 631.0, 632.0, 631.0, 631.0, 628.0, 631.0, 629.0, 631.0, 628.0, 629.0, 629.0, 630.0, 628.0, 631.0, 629.0, 633.0, 629.0, 632.0, 629.0, 631.0, 632.0, 632.0, 633.0, 629.0, 629.0, 629.0, 626.0, 627.0, 625.0, 626.0, 629.0, 630.0, 633.0, 630.0, 631.0, 631.0, 628.0, 631.0, 630.0, 632.0, 628.0, 631.0, 628.0, 632.0, 628.0, 628.0, 626.0, 628.0, 624.0, 629.0, 628.0, 626.0, 630.0, 627.0, 628.0, 625.0, 626.0, 627.0, 628.0, 629.0, 632.0, 632.0, 630.0, 628.0, 629.0, 628.0, 629.0, 629.0, 629.0, 629.0, 627.0, 630.0, 629.0, 632.0, 631.0, 631.0, 628.0, 625.0, 626.0, 628.0, 630.0, 632.0, 630.0, 628.0, 628.0, 625.0, 626.0, 626.0, 628.0, 630.0, 625.0, 632.0, 632.0, 629.0, 629.0, 630.0, 629.0, 627.0, 626.0, 624.0, 626.0, 626.0, 628.0, 628.0, 629.0, 632.0, 631.0, 632.0, 632.0, 633.0, 629.0, 628.0, 627.0, 625.0, 624.0, 623.0, 630.0, 629.0, 630.0, 633.0, 629.0, 627.0, 629.0, 625.0, 625.0, 628.0, 628.0, 629.0, 630.0, 633.0, 633.0, 631.0, 629.0, 630.0, 629.0, 629.0, 629.0, 630.0, 632.0, 629.0, 627.0, 627.0, 630.0, 630.0, 628.0, 627.0, 627.0, 626.0, 627.0, 628.0, 629.0, 630.0, 630.0, 630.0, 629.0, 631.0, 633.0, 630.0, 629.0, 629.0, 627.0, 628.0, 629.0, 630.0, 633.0, 631.0, 632.0, 632.0, 632.0],
      "WindowWidth": [1372.0, 1365.0, 1365.0, 1359.0, 1360.0, 1366.0, 1357.0, 1365.0, 1357.0, 1351.0, 1348.0, 1352.0, 1348.0, 1352.0, 1360.0, 1356.0, 1363.0, 1355.0, 1359.0, 1362.0, 1366.0, 1367.0, 1363.0, 1365.0, 1360.0, 1364.0, 1363.0, 1369.0, 1363.0, 1370.0, 1364.0, 1362.0, 1362.0, 1366.0, 1359.0, 1358.0, 1354.0, 1353.0, 1359.0, 1354.0, 1356.0, 1358.0, 1364.0, 1361.0, 1365.0, 1360.0, 1363.0, 1360.0, 1363.0, 1369.0, 1365.0, 1359.0, 1367.0, 1358.0, 1367.0, 1359.0, 1364.0, 1361.0, 1356.0, 1351.0, 1343.0, 1345.0, 1347.0, 1349.0, 1355.0, 1357.0, 1362.0, 1361.0, 1363.0, 1368.0, 1363.0, 1364.0, 1355.0, 1364.0, 1357.0, 1363.0, 1356.0, 1360.0, 1358.0, 1362.0, 1357.0, 1364.0, 1358.0, 1367.0, 1360.0, 1367.0, 1360.0, 1362.0, 1367.0, 1366.0, 1370.0, 1359.0, 1357.0, 1357.0, 1349.0, 1354.0, 1348.0, 1352.0, 1358.0, 1361.0, 1368.0, 1362.0, 1363.0, 1362.0, 1357.0, 1363.0, 1362.0, 1366.0, 1356.0, 1364.0, 1356.0, 1367.0, 1355.0, 1354.0, 1350.0, 1356.0, 1345.0, 1358.0, 1356.0, 1351.0, 1361.0, 1353.0, 1355.0, 1349.0, 1352.0, 1355.0, 1357.0, 1358.0, 1366.0, 1367.0, 1361.0, 1356.0, 1358.0, 1356.0, 1359.0, 1359.0, 1357.0, 1359.0, 1354.0, 1361.0, 1359.0, 1367.0, 1364.0, 1362.0, 1355.0, 1349.0, 1352.0, 1355.0, 1360.0, 1368.0, 1361.0, 1356.0, 1354.0, 1347.0, 1349.0, 1351.0, 1357.0, 1362.0, 1348.0, 1366.0, 1366.0, 1359.0, 1358.0, 1361.0, 1356.0, 1352.0, 1349.0, 1346.0, 1350.0, 1351.0, 1356.0, 1357.0, 1359.0, 1366.0, 1363.0, 1367.0, 1367.0, 1369.0, 1357.0, 1355.0, 1352.0, 1347.0, 1345.0, 1343.0, 1360.0, 1358.0, 1361.0, 1369.0, 1357.0, 1353.0, 1356.0, 1348.0, 1349.0, 1357.0, 1357.0, 1359.0, 1362.0, 1370.0, 1368.0, 1363.0, 1358.0, 1361.0, 1360.0, 1359.0, 1360.0, 1359.0, 1366.0, 1358.0, 1353.0, 1353.0, 1361.0, 1359.0, 1355.0, 1352.0, 1352.0, 1350.0, 1353.0, 1356.0, 1358.0, 1362.0, 1360.0, 1362.0, 1359.0, 1363.0, 1368.0, 1362.0, 1358.0, 1357.0, 1353.0, 1356.0, 1360.0, 1363.0, 1368.0, 1364.0, 1368.0, 1366.0, 1365.0]
    },
    "slices": {}
  }
}