{
  "AcquisitionMatrixPE": 70,
  "AcquisitionNumber": 1,
  "AcquisitionTime": "15:14:11.510000",
  "BandwidthPerPixelPhaseEncode": 38.873,
  "BaseResolution": 70,
  "BodyPartExamined": "HEAD",
  "ConsistencyInfo": "N4_VE11B_LATEST_20150530",
  "ConversionSoftware": "dcm2niix",
  "ConversionSoftwareVersion": "v1.0.20190410  GCC6.3.0",
  "DerivedVendorReportedEchoSpacing": 0.000489996,
  "DeviceSerialNumber": "66088",
  "DwellTime": 2.9e-06,
  "EchoTime": 0.03,
  "EchoTrainLength": 53,
  "EffectiveEchoSpacing": 0.000367497,
  "FlipAngle": 90,
  "ImageOrientationPatientDICOM": [0.998645, 0.00848814, -0.0513443, -0.0261504, 0.93485, -0.354077],
  "ImageType": [
    "ORIGINAL",
    "PRIMARY",
    "M",
    "ND",
    "NORM",
    "MOSAIC"
],
  "ImagingFrequency": 123.191,
  "InPlanePhaseEncodingDirectionDICOM": "COL",
  "InstitutionAddress": "Street_StreetNo_City_District_IR_ZIP",
  "InstitutionName": "NBML",
  "InstitutionalDepartmentName": "Department",
  "MRAcquisitionType": "2D",
  "MagneticFieldStrength": 3,
  "Manufacturer": "Siemens",
  "ManufacturersModelName": "Prisma",
  "Modality": "MR",
  "ParallelReductionFactorInPlane": 2,
  "PartialFourier": 1,
  "PatientPosition": "HFS",
  "PercentPhaseFOV": 100,
  "PhaseEncodingDirection": "j-",
  "PhaseEncodingSteps": 105,
  "PhaseOversampling": 0.5,
  "PhaseResolution": 1,
  "PixelBandwidth": 2465,
  "ProcedureStepDescription": "NBML_Project_P_96169_Ebrahiminiya-Khaliq",
  "ProtocolName": "ep2d_p2_Task_3.5_measurment:237",
  "PulseSequenceDetails": "%SiemensSeq%_ep2d_pace",
  "ReceiveCoilActiveElements": "HC1-7;NC1",
  "ReceiveCoilName": "HeadNeck_64",
  "ReconMatrixPE": 70,
  "RefLinesPE": 24,
  "RepetitionTime": 2,
  "SAR": 0.0798518,
  "ScanOptions": "FS",
  "ScanningSequence": "EP",
  "SequenceName": "_epfid2d1_70",
  "SequenceVariant": "SK_OSP",
  "SeriesDescription": "ep2d_p2_Task_3.5_measurment:237",
  "SeriesNumber": 7,
  "ShimSetting": [2592, -4495, -3268, 501, 59, -72, 0, 12],
  "SliceThickness": 3.5,
  "SliceTiming": [0.99, 0, 1.0475, 0.0575, 1.105, 0.115, 1.1625, 0.1725, 1.2225, 0.2325, 1.28, 0.29, 1.3375, 0.3475, 1.3975, 0.4075, 1.455, 0.465, 1.5125, 0.5225, 1.57, 0.58, 1.63, 0.64, 1.6875, 0.6975, 1.745, 0.755, 1.805, 0.815, 1.8625, 0.8725, 1.92, 0.93],
  "SoftwareVersions": "syngo_MR_E11",
  "SpacingBetweenSlices": 3.85,
  "StationName": "AWP66088",
  "TaskName": "categorySelectivity",
  "TotalReadoutTime": 0.0253573,
  "TxRefAmp": 217.748,
  "dcmmeta_affine": [
    [-3.5380563735961914, -0.09264729917049408, -0.1732262223958969, 130.27708435058594],
    [-0.030072275549173355, 3.312041759490967, -1.3665196895599365, -83.10671997070312],
    [-0.18190567195415497, 1.2544453144073486, 3.595151662826538, -77.4163818359375],
    [0.0, 0.0, 0.0, 1.0]
],
  "dcmmeta_reorient_transform": [
    [0.0, -1.0, 0.0, 69.0],
    [1.0, 0.0, 0.0, 0.0],
    [0.0, 0.0, 1.0, 0.0],
    [0.0, 0.0, 0.0, 1.0]
],
  "dcmmeta_shape": [70, 70, 34, 237],
  "dcmmeta_slice_dim": 2,
  "dcmmeta_version": 0.6,
  "global": {
    "const": {
      "AccessionNumber": "M.BRZ",
      "AcquisitionMatrix": [70, 0, 0, 70],
      "AngioFlag": "N",
      "BitsAllocated": 16,
      "BitsStored": 12,
      "BodyPartExamined": "HEAD",
      "Columns": 420,
      "EchoNumbers": 1,
      "EchoTime": 30.0,
      "EchoTrainLength": 53,
      "FlipAngle": 90.0,
      "HighBit": 11,
      "ImageOrientationPatient": [0.99864493689366, 0.00848814237185, -0.0513443420031, -0.0261504463715, 0.93485047274574, -0.3540773189031],
      "ImagePositionPatient": [-726.83101435467, -730.29409984023, 260.50178291447],
      "ImageType": [
        "ORIGINAL",
        "PRIMARY",
        "M",
        "ND",
        "NORM",
        "MOSAIC"
],
      "ImagedNucleus": "1H",
      "ImagingFrequency": 123.191173,
      "InPlanePhaseEncodingDirection": "COL",
      "MRAcquisitionType": "2D",
      "MagneticFieldStrength": 3.0,
      "Manufacturer": "SIEMENS",
      "ManufacturerModelName": "Prisma",
      "Modality": "MR",
      "NumberOfAverages": 1.0,
      "NumberOfPhaseEncodingSteps": 105,
      "PercentPhaseFieldOfView": 100.0,
      "PercentSampling": 100.0,
      "PerformedProcedureStepStartTime": "143258.097000",
      "PhotometricInterpretation": "MONOCHROME2",
      "PixelBandwidth": 2465.0,
      "PixelRepresentation": 0,
      "PixelSpacing": [3.542857170105, 3.542857170105],
      "ProtocolName": "ep2d_p2_Task_3.5_measurment:237",
      "RepetitionTime": 2000.0,
      "Rows": 420,
      "SAR": 0.07985176631371,
      "SamplesPerPixel": 1,
      "ScanOptions": "FS",
      "ScanningSequence": "EP",
      "SequenceName": "*epfid2d1_70",
      "SequenceVariant": [
        "SK",
        "OSP"
],
      "SeriesDescription": "ep2d_p2_Task_3.5_measurment:237",
      "SeriesNumber": 7,
      "SeriesTime": "151414.997000",
      "SliceLocation": -48.655600486828,
      "SliceThickness": 3.5,
      "SmallestImagePixelValue": 0,
      "SoftwareVersions": "syngo MR E11",
      "SpacingBetweenSlices": 3.8499999362283,
      "SpecificCharacterSet": "ISO_IR 100",
      "StudyID": "1",
      "StudyTime": "143258.017000",
      "TransmitCoilName": "Body",
      "VariableFlipAngleFlag": "N",
      "WindowCenterWidthExplanation": "Algo1",
      "dBdt": 0.0},
    "slices": {}
  },
  "time": {
    "samples": {
      "AcquisitionNumber": [1, 2, 3, 4, 5, 6, 7, 8, 9, 10, 11, 12, 13, 14, 15, 16, 17, 18, 19, 20, 21, 22, 23, 24, 25, 26, 27, 28, 29, 30, 31, 32, 33, 34, 35, 36, 37, 38, 39, 40, 41, 42, 43, 44, 45, 46, 47, 48, 49, 50, 51, 52, 53, 54, 55, 56, 57, 58, 59, 60, 61, 62, 63, 64, 65, 66, 67, 68, 69, 70, 71, 72, 73, 74, 75, 76, 77, 78, 79, 80, 81, 82, 83, 84, 85, 86, 87, 88, 89, 90, 91, 92, 93, 94, 95, 96, 97, 98, 99, 100, 101, 102, 103, 104, 105, 106, 107, 108, 109, 110, 111, 112, 113, 114, 115, 116, 117, 118, 119, 120, 121, 122, 123, 124, 125, 126, 127, 128, 129, 130, 131, 132, 133, 134, 135, 136, 137, 138, 139, 140, 141, 142, 143, 144, 145, 146, 147, 148, 149, 150, 151, 152, 153, 154, 155, 156, 157, 158, 159, 160, 161, 162, 163, 164, 165, 166, 167, 168, 169, 170, 171, 172, 173, 174, 175, 176, 177, 178, 179, 180, 181, 182, 183, 184, 185, 186, 187, 188, 189, 190, 191, 192, 193, 194, 195, 196, 197, 198, 199, 200, 201, 202, 203, 204, 205, 206, 207, 208, 209, 210, 211, 212, 213, 214, 215, 216, 217, 218, 219, 220, 221, 222, 223, 224, 225, 226, 227, 228, 229, 230, 231, 232, 233, 234, 235, 236, 237],
      "AcquisitionTime": ["151411.510000", "151413.510000", "151415.510000", "151417.510000", "151419.510000", "151421.510000", "151423.510000", "151425.510000", "151427.510000", "151429.510000", "151431.510000", "151433.510000", "151435.510000", "151437.510000", "151439.510000", "151441.510000", "151443.510000", "151445.510000", "151447.510000", "151449.510000", "151451.510000", "151453.510000", "151455.510000", "151457.510000", "151459.510000", "151501.510000", "151503.510000", "151505.510000", "151507.510000", "151509.510000", "151511.510000", "151513.510000", "151515.510000", "151517.510000", "151519.510000", "151521.510000", "151523.510000", "151525.510000", "151527.510000", "151529.510000", "151531.510000", "151533.510000", "151535.510000", "151537.510000", "151539.510000", "151541.510000", "151543.510000", "151545.510000", "151547.510000", "151549.510000", "151551.510000", "151553.510000", "151555.510000", "151557.510000", "151559.510000", "151601.510000", "151603.510000", "151605.510000", "151607.510000", "151609.510000", "151611.510000", "151613.510000", "151615.510000", "151617.510000", "151619.510000", "151621.510000", "151623.510000", "151625.510000", "151627.510000", "151629.510000", "151631.510000", "151633.510000", "151635.510000", "151637.510000", "151639.510000", "151641.510000", "151643.510000", "151645.510000", "151647.510000", "151649.510000", "151651.510000", "151653.510000", "151655.510000", "151657.510000", "151659.510000", "151701.510000", "151703.510000", "151705.510000", "151707.510000", "151709.510000", "151711.510000", "151713.510000", "151715.510000", "151717.510000", "151719.510000", "151721.510000", "151723.510000", "151725.510000", "151727.510000", "151729.510000", "151731.510000", "151733.510000", "151735.510000", "151737.510000", "151739.510000", "151741.510000", "151743.510000", "151745.510000", "151747.510000", "151749.510000", "151751.510000", "151753.510000", "151755.510000", "151757.510000", "151759.510000", "151801.510000", "151803.510000", "151805.510000", "151807.510000", "151809.510000", "151811.510000", "151813.510000", "151815.510000", "151817.510000", "151819.510000", "151821.510000", "151823.510000", "151825.510000", "151827.510000", "151829.510000", "151831.510000", "151833.510000", "151835.510000", "151837.510000", "151839.510000", "151841.510000", "151843.510000", "151845.510000", "151847.510000", "151849.510000", "151851.510000", "151853.510000", "151855.510000", "151857.510000", "151859.510000", "151901.510000", "151903.510000", "151905.510000", "151907.510000", "151909.510000", "151911.510000", "151913.510000", "151915.510000", "151917.510000", "151919.510000", "151921.510000", "151923.510000", "151925.510000", "151927.510000", "151929.510000", "151931.510000", "151933.510000", "151935.510000", "151937.510000", "151939.510000", "151941.510000", "151943.510000", "151945.510000", "151947.510000", "151949.510000", "151951.510000", "151953.510000", "151955.510000", "151957.510000", "151959.510000", "152001.510000", "152003.510000", "152005.510000", "152007.510000", "152009.510000", "152011.510000", "152013.510000", "152015.510000", "152017.510000", "152019.510000", "152021.510000", "152023.510000", "152025.510000", "152027.510000", "152029.510000", "152031.510000", "152033.510000", "152035.510000", "152037.510000", "152039.510000", "152041.510000", "152043.510000", "152045.510000", "152047.510000", "152049.510000", "152051.510000", "152053.510000", "152055.510000", "152057.510000", "152059.510000", "152101.510000", "152103.510000", "152105.510000", "152107.510000", "152109.510000", "152111.510000", "152113.510000", "152115.510000", "152117.510000", "152119.510000", "152121.510000", "152123.510000", "152125.510000", "152127.510000", "152129.510000", "152131.510000", "152133.510000", "152135.510000", "152137.510000", "152139.510000", "152141.510000", "152143.510000", "152145.510000", "152147.510000", "152149.510000", "152151.510000", "152153.510000", "152155.510000", "152157.510000", "152159.510000", "152201.510000", "152203.510000"],
      "ContentTime": ["151415.002000", "151454.998000", "151455.013000", "151455.016000", "151455.018000", "151455.021000", "151455.024000", "151455.026000", "151455.029000", "151455.034000", "151455.037000", "151455.039000", "151455.042000", "151455.045000", "151455.048000", "151455.051000", "151455.053000", "151455.056000", "151455.059000", "151455.062000", "151455.064000", "151534.997000", "151535.002000", "151535.005000", "151535.008000", "151535.011000", "151535.015000", "151535.019000", "151535.022000", "151535.026000", "151535.030000", "151535.033000", "151535.037000", "151535.040000", "151535.043000", "151535.046000", "151535.050000", "151535.052000", "151535.056000", "151535.060000", "151535.063000", "151614.996000", "151615.000000", "151615.002000", "151615.005000", "151615.007000", "151615.010000", "151615.012000", "151615.014000", "151615.017000", "151615.019000", "151615.021000", "151615.024000", "151615.026000", "151615.030000", "151615.032000", "151615.035000", "151615.037000", "151615.040000", "151615.042000", "151615.045000", "151654.997000", "151655.002000", "151655.011000", "151655.015000", "151655.018000", "151655.021000", "151655.024000", "151655.027000", "151655.033000", "151655.036000", "151655.039000", "151655.042000", "151655.045000", "151655.049000", "151655.053000", "151655.056000", "151655.060000", "151655.063000", "151655.066000", "151655.069000", "151734.998000", "151735.003000", "151735.006000", "151735.009000", "151735.013000", "151735.016000", "151735.019000", "151735.022000", "151735.025000", "151735.031000", "151735.034000", "151735.037000", "151735.040000", "151735.043000", "151735.047000", "151735.050000", "151735.053000", "151735.057000", "151735.060000", "151735.063000", "151814.995000", "151814.998000", "151815.002000", "151815.004000", "151815.006000", "151815.009000", "151815.011000", "151815.014000", "151815.016000", "151815.019000", "151815.021000", "151815.023000", "151815.026000", "151815.030000", "151815.032000", "151815.034000", "151815.037000", "151815.039000", "151815.042000", "151815.044000", "151854.996000", "151855.000000", "151855.002000", "151855.005000", "151855.007000", "151855.010000", "151855.012000", "151855.015000", "151855.017000", "151855.019000", "151855.022000", "151855.024000", "151855.028000", "151855.031000", "151855.033000", "151855.035000", "151855.038000", "151855.040000", "151855.043000", "151855.045000", "151935.000000", "151935.005000", "151935.008000", "151935.011000", "151935.014000", "151935.017000", "151935.020000", "151935.023000", "151935.027000", "151935.031000", "151935.034000", "151935.037000", "151935.040000", "151935.045000", "151935.050000", "151935.053000", "151935.056000", "151935.059000", "151935.062000", "151935.065000", "152014.995000", "152014.998000", "152015.002000", "152015.004000", "152015.007000", "152015.009000", "152015.011000", "152015.014000", "152015.016000", "152015.019000", "152015.021000", "152015.023000", "152015.027000", "152015.029000", "152015.032000", "152015.054000", "152015.056000", "152015.059000", "152015.061000", "152015.064000", "152054.998000", "152055.002000", "152055.006000", "152055.009000", "152055.012000", "152055.015000", "152055.018000", "152055.022000", "152055.026000", "152055.030000", "152055.033000", "152055.036000", "152055.039000", "152055.042000", "152055.046000", "152055.049000", "152055.052000", "152055.055000", "152055.059000", "152055.062000", "152134.996000", "152135.001000", "152135.004000", "152135.007000", "152135.010000", "152135.013000", "152135.016000", "152135.019000", "152135.022000", "152135.027000", "152135.030000", "152135.033000", "152135.037000", "152135.040000", "152135.043000", "152135.046000", "152135.050000", "152135.053000", "152135.056000", "152135.059000", "152205.112000", "152205.117000", "152205.120000", "152205.123000", "152205.128000", "152205.132000", "152205.135000", "152205.139000", "152205.142000", "152205.151000", "152205.154000", "152205.158000", "152205.162000", "152205.165000", "152205.169000", "152205.172000"],
      "InstanceCreationTime": ["151415.002000", "151454.998000", "151455.013000", "151455.016000", "151455.018000", "151455.021000", "151455.024000", "151455.026000", "151455.029000", "151455.034000", "151455.037000", "151455.039000", "151455.042000", "151455.045000", "151455.048000", "151455.051000", "151455.053000", "151455.056000", "151455.059000", "151455.062000", "151455.064000", "151534.997000", "151535.002000", "151535.005000", "151535.008000", "151535.011000", "151535.015000", "151535.019000", "151535.022000", "151535.026000", "151535.030000", "151535.033000", "151535.037000", "151535.040000", "151535.043000", "151535.046000", "151535.050000", "151535.052000", "151535.056000", "151535.060000", "151535.063000", "151614.996000", "151615.000000", "151615.002000", "151615.005000", "151615.007000", "151615.010000", "151615.012000", "151615.014000", "151615.017000", "151615.019000", "151615.021000", "151615.024000", "151615.026000", "151615.030000", "151615.032000", "151615.035000", "151615.037000", "151615.040000", "151615.042000", "151615.045000", "151654.997000", "151655.002000", "151655.011000", "151655.015000", "151655.018000", "151655.021000", "151655.024000", "151655.027000", "151655.033000", "151655.036000", "151655.039000", "151655.042000", "151655.045000", "151655.049000", "151655.053000", "151655.056000", "151655.060000", "151655.063000", "151655.066000", "151655.069000", "151734.998000", "151735.003000", "151735.006000", "151735.009000", "151735.013000", "151735.016000", "151735.019000", "151735.022000", "151735.025000", "151735.031000", "151735.034000", "151735.037000", "151735.040000", "151735.043000", "151735.047000", "151735.050000", "151735.053000", "151735.057000", "151735.060000", "151735.063000", "151814.995000", "151814.998000", "151815.002000", "151815.004000", "151815.006000", "151815.009000", "151815.011000", "151815.014000", "151815.016000", "151815.019000", "151815.021000", "151815.023000", "151815.026000", "151815.030000", "151815.032000", "151815.034000", "151815.037000", "151815.039000", "151815.042000", "151815.044000", "151854.996000", "151855.000000", "151855.002000", "151855.005000", "151855.007000", "151855.010000", "151855.012000", "151855.015000", "151855.017000", "151855.019000", "151855.022000", "151855.024000", "151855.028000", "151855.031000", "151855.033000", "151855.035000", "151855.038000", "151855.040000", "151855.043000", "151855.045000", "151935.000000", "151935.005000", "151935.008000", "151935.011000", "151935.014000", "151935.017000", "151935.020000", "151935.023000", "151935.027000", "151935.031000", "151935.034000", "151935.037000", "151935.040000", "151935.045000", "151935.050000", "151935.053000", "151935.056000", "151935.059000", "151935.062000", "151935.065000", "152014.995000", "152014.998000", "152015.002000", "152015.004000", "152015.007000", "152015.009000", "152015.011000", "152015.014000", "152015.016000", "152015.019000", "152015.021000", "152015.023000", "152015.027000", "152015.029000", "152015.032000", "152015.054000", "152015.056000", "152015.059000", "152015.061000", "152015.064000", "152054.998000", "152055.002000", "152055.006000", "152055.009000", "152055.012000", "152055.015000", "152055.018000", "152055.022000", "152055.026000", "152055.030000", "152055.033000", "152055.036000", "152055.039000", "152055.042000", "152055.046000", "152055.049000", "152055.052000", "152055.055000", "152055.059000", "152055.062000", "152134.996000", "152135.001000", "152135.004000", "152135.007000", "152135.010000", "152135.013000", "152135.016000", "152135.019000", "152135.022000", "152135.027000", "152135.030000", "152135.033000", "152135.037000", "152135.040000", "152135.043000", "152135.046000", "152135.050000", "152135.053000", "152135.056000", "152135.059000", "152205.112000", "152205.117000", "152205.120000", "152205.123000", "152205.128000", "152205.132000", "152205.135000", "152205.139000", "152205.142000", "152205.151000", "152205.154000", "152205.158000", "152205.162000", "152205.165000", "152205.169000", "152205.172000"],
      "InstanceNumber": [1, 2, 3, 4, 5, 6, 7, 8, 9, 10, 11, 12, 13, 14, 15, 16, 17, 18, 19, 20, 21, 22, 23, 24, 25, 26, 27, 28, 29, 30, 31, 32, 33, 34, 35, 36, 37, 38, 39, 40, 41, 42, 43, 44, 45, 46, 47, 48, 49, 50, 51, 52, 53, 54, 55, 56, 57, 58, 59, 60, 61, 62, 63, 64, 65, 66, 67, 68, 69, 70, 71, 72, 73, 74, 75, 76, 77, 78, 79, 80, 81, 82, 83, 84, 85, 86, 87, 88, 89, 90, 91, 92, 93, 94, 95, 96, 97, 98, 99, 100, 101, 102, 103, 104, 105, 106, 107, 108, 109, 110, 111, 112, 113, 114, 115, 116, 117, 118, 119, 120, 121, 122, 123, 124, 125, 126, 127, 128, 129, 130, 131, 132, 133, 134, 135, 136, 137, 138, 139, 140, 141, 142, 143, 144, 145, 146, 147, 148, 149, 150, 151, 152, 153, 154, 155, 156, 157, 158, 159, 160, 161, 162, 163, 164, 165, 166, 167, 168, 169, 170, 171, 172, 173, 174, 175, 176, 177, 178, 179, 180, 181, 182, 183, 184, 185, 186, 187, 188, 189, 190, 191, 192, 193, 194, 195, 196, 197, 198, 199, 200, 201, 202, 203, 204, 205, 206, 207, 208, 209, 210, 211, 212, 213, 214, 215, 216, 217, 218, 219, 220, 221, 222, 223, 224, 225, 226, 227, 228, 229, 230, 231, 232, 233, 234, 235, 236, 237],
      "LargestImagePixelValue": [1584, 2584, 1764, 1962, 1540, 1548, 2055, 2417, 2433, 1570, 2043, 1505, 1718, 1543, 2389, 1570, 1488, 2163, 1967, 2557, 1941, 1608, 2173, 1531, 2353, 1616, 2230, 1549, 1523, 2116, 1576, 2403, 1714, 2341, 1610, 2043, 1537, 2276, 1542, 1566, 1522, 1529, 2454, 1988, 2010, 2369, 2368, 2136, 1999, 2459, 1839, 1800, 1564, 2478, 1870, 2138, 1470, 1703, 2084, 2603, 1875, 1709, 2357, 2353, 2262, 1689, 1675, 1516, 2356, 1586, 1639, 1532, 1943, 2334, 2508, 1997, 1520, 1654, 1540, 1520, 2595, 2455, 2192, 2221, 1496, 1996, 1521, 2081, 1536, 1585, 1522, 1744, 2352, 1609, 2343, 2339, 1739, 2638, 2381, 2218, 2534, 2300, 2542, 1679, 1668, 2256, 1593, 1521, 1540, 1506, 1788, 1503, 2273, 1537, 2246, 2322, 1877, 2582, 1555, 2518, 2114, 1501, 1542, 1505, 2533, 2087, 2429, 1629, 1519, 1799, 1520, 2537, 2326, 2238, 2573, 1571, 2256, 1551, 2221, 1820, 1533, 2296, 1550, 2491, 1538, 1676, 1524, 1855, 1553, 1542, 2551, 1909, 2331, 1717, 1956, 2499, 1572, 2542, 1539, 2161, 1570, 1577, 2419, 1550, 2238, 1757, 1576, 2572, 2782, 2195, 1869, 1532, 2077, 2622, 1638, 1547, 1613, 1511, 1507, 2374, 1506, 1531, 1877, 1567, 2032, 1692, 1514, 1511, 1833, 2613, 2465, 2280, 2620, 1714, 1537, 1648, 1535, 1647, 1542, 1501, 2412, 1515, 2334, 2171, 1753, 2531, 1509, 1543, 2516, 2012, 1608, 2459, 1978, 2224, 2529, 1794, 1891, 1513, 1712, 1522, 2516, 1623, 2018, 1527, 1557, 2391, 2163, 2288, 2384, 1724, 2300, 2056, 1536, 1545, 1565, 1997, 2335],
      "WindowCenter": [629.0, 631.0, 628.0, 630.0, 628.0, 629.0, 632.0, 632.0, 631.0, 628.0, 630.0, 629.0, 630.0, 629.0, 632.0, 630.0, 630.0, 633.0, 632.0, 633.0, 630.0, 628.0, 632.0, 629.0, 632.0, 629.0, 632.0, 629.0, 629.0, 633.0, 630.0, 633.0, 630.0, 631.0, 628.0, 631.0, 628.0, 632.0, 630.0, 630.0, 631.0, 631.0, 634.0, 632.0, 632.0, 633.0, 631.0, 632.0, 629.0, 630.0, 628.0, 628.0, 627.0, 631.0, 627.0, 629.0, 627.0, 630.0, 631.0, 630.0, 629.0, 626.0, 626.0, 630.0, 629.0, 626.0, 626.0, 627.0, 630.0, 628.0, 628.0, 628.0, 630.0, 631.0, 632.0, 630.0, 628.0, 631.0, 630.0, 631.0, 633.0, 631.0, 630.0, 630.0, 628.0, 630.0, 628.0, 631.0, 629.0, 630.0, 630.0, 632.0, 634.0, 631.0, 634.0, 635.0, 632.0, 634.0, 632.0, 631.0, 632.0, 631.0, 631.0, 628.0, 628.0, 631.0, 628.0, 627.0, 628.0, 628.0, 629.0, 630.0, 633.0, 630.0, 632.0, 633.0, 631.0, 634.0, 629.0, 633.0, 631.0, 629.0, 630.0, 631.0, 635.0, 632.0, 633.0, 630.0, 630.0, 631.0, 630.0, 633.0, 632.0, 631.0, 631.0, 627.0, 631.0, 629.0, 631.0, 630.0, 630.0, 633.0, 630.0, 633.0, 630.0, 630.0, 630.0, 631.0, 629.0, 629.0, 633.0, 631.0, 632.0, 630.0, 632.0, 633.0, 629.0, 633.0, 629.0, 633.0, 629.0, 630.0, 634.0, 631.0, 634.0, 631.0, 631.0, 632.0, 630.0, 628.0, 626.0, 625.0, 627.0, 629.0, 626.0, 626.0, 628.0, 628.0, 628.0, 632.0, 629.0, 630.0, 632.0, 630.0, 633.0, 632.0, 631.0, 631.0, 632.0, 634.0, 633.0, 631.0, 631.0, 628.0, 627.0, 628.0, 628.0, 630.0, 630.0, 630.0, 633.0, 629.0, 633.0, 632.0, 630.0, 633.0, 629.0, 630.0, 633.0, 632.0, 629.0, 633.0, 631.0, 632.0, 631.0, 628.0, 629.0, 627.0, 630.0, 628.0, 633.0, 629.0, 631.0, 630.0, 630.0, 634.0, 632.0, 632.0, 631.0, 629.0, 631.0, 631.0, 627.0, 628.0, 630.0, 631.0, 632.0],
      "WindowWidth": [1360.0, 1364.0, 1356.0, 1360.0, 1356.0, 1359.0, 1365.0, 1365.0, 1364.0, 1355.0, 1361.0, 1358.0, 1362.0, 1360.0, 1368.0, 1363.0, 1362.0, 1370.0, 1366.0, 1369.0, 1363.0, 1358.0, 1366.0, 1359.0, 1366.0, 1359.0, 1367.0, 1360.0, 1360.0, 1368.0, 1362.0, 1369.0, 1361.0, 1365.0, 1357.0, 1363.0, 1357.0, 1367.0, 1360.0, 1361.0, 1364.0, 1364.0, 1371.0, 1368.0, 1365.0, 1368.0, 1363.0, 1367.0, 1359.0, 1362.0, 1357.0, 1356.0, 1353.0, 1363.0, 1353.0, 1358.0, 1352.0, 1360.0, 1363.0, 1362.0, 1359.0, 1351.0, 1351.0, 1361.0, 1359.0, 1351.0, 1352.0, 1353.0, 1361.0, 1355.0, 1356.0, 1357.0, 1362.0, 1365.0, 1367.0, 1361.0, 1357.0, 1363.0, 1361.0, 1365.0, 1369.0, 1365.0, 1361.0, 1362.0, 1357.0, 1361.0, 1356.0, 1363.0, 1359.0, 1363.0, 1363.0, 1367.0, 1373.0, 1363.0, 1371.0, 1374.0, 1366.0, 1373.0, 1367.0, 1364.0, 1366.0, 1363.0, 1364.0, 1356.0, 1356.0, 1363.0, 1355.0, 1354.0, 1356.0, 1356.0, 1359.0, 1360.0, 1369.0, 1361.0, 1368.0, 1369.0, 1363.0, 1371.0, 1359.0, 1368.0, 1365.0, 1359.0, 1363.0, 1365.0, 1373.0, 1366.0, 1368.0, 1362.0, 1361.0, 1365.0, 1362.0, 1370.0, 1366.0, 1362.0, 1364.0, 1354.0, 1365.0, 1358.0, 1365.0, 1361.0, 1361.0, 1369.0, 1361.0, 1369.0, 1362.0, 1362.0, 1361.0, 1365.0, 1360.0, 1360.0, 1370.0, 1363.0, 1368.0, 1363.0, 1366.0, 1369.0, 1360.0, 1369.0, 1360.0, 1368.0, 1360.0, 1361.0, 1371.0, 1364.0, 1374.0, 1363.0, 1364.0, 1367.0, 1362.0, 1354.0, 1350.0, 1348.0, 1352.0, 1359.0, 1351.0, 1352.0, 1356.0, 1355.0, 1357.0, 1366.0, 1358.0, 1361.0, 1367.0, 1363.0, 1368.0, 1366.0, 1364.0, 1366.0, 1367.0, 1373.0, 1368.0, 1363.0, 1364.0, 1355.0, 1352.0, 1356.0, 1357.0, 1362.0, 1361.0, 1361.0, 1370.0, 1360.0, 1368.0, 1366.0, 1361.0, 1369.0, 1358.0, 1361.0, 1370.0, 1366.0, 1360.0, 1370.0, 1365.0, 1365.0, 1364.0, 1357.0, 1360.0, 1355.0, 1362.0, 1357.0, 1368.0, 1359.0, 1365.0, 1363.0, 1363.0, 1371.0, 1366.0, 1367.0, 1365.0, 1359.0, 1364.0, 1362.0, 1354.0, 1358.0, 1362.0, 1364.0, 1366.0]
    },
    "slices": {}
  }
}