{
  "AcquisitionMatrixPE": 70,
  "AcquisitionNumber": 1,
  "AcquisitionTime": "14:56:37.062500",
  "BandwidthPerPixelPhaseEncode": 38.873,
  "BaseResolution": 70,
  "BodyPartExamined": "HEAD",
  "ConsistencyInfo": "N4_VE11B_LATEST_20150530",
  "ConversionSoftware": "dcm2niix",
  "ConversionSoftwareVersion": "v1.0.20190410  GCC6.3.0",
  "DerivedVendorReportedEchoSpacing": 0.000489996,
  "DeviceSerialNumber": "66088",
  "DwellTime": 2.9e-06,
  "EchoTime": 0.03,
  "EchoTrainLength": 53,
  "EffectiveEchoSpacing": 0.000367497,
  "FlipAngle": 90,
  "ImageOrientationPatientDICOM": [0.998645, 0.00848814, -0.0513443, -0.0261504, 0.93485, -0.354077],
  "ImageType": [
    "ORIGINAL",
    "PRIMARY",
    "M",
    "ND",
    "NORM",
    "MOSAIC"
],
  "ImagingFrequency": 123.191,
  "InPlanePhaseEncodingDirectionDICOM": "COL",
  "InstitutionAddress": "Street_StreetNo_City_District_IR_ZIP",
  "InstitutionName": "NBML",
  "InstitutionalDepartmentName": "Department",
  "MRAcquisitionType": "2D",
  "MagneticFieldStrength": 3,
  "Manufacturer": "Siemens",
  "ManufacturersModelName": "Prisma",
  "Modality": "MR",
  "ParallelReductionFactorInPlane": 2,
  "PartialFourier": 1,
  "PatientPosition": "HFS",
  "PercentPhaseFOV": 100,
  "PhaseEncodingDirection": "j-",
  "PhaseEncodingSteps": 105,
  "PhaseOversampling": 0.5,
  "PhaseResolution": 1,
  "PixelBandwidth": 2465,
  "ProcedureStepDescription": "NBML_Project_P_96169_Ebrahiminiya-Khaliq",
  "ProtocolName": "ep2d_p2_Task_3.5_measurment:237",
  "PulseSequenceDetails": "%SiemensSeq%_ep2d_pace",
  "ReceiveCoilActiveElements": "HC1-7;NC1",
  "ReceiveCoilName": "HeadNeck_64",
  "ReconMatrixPE": 70,
  "RefLinesPE": 24,
  "RepetitionTime": 2,
  "SAR": 0.0798518,
  "ScanOptions": "FS",
  "ScanningSequence": "EP",
  "SequenceName": "_epfid2d1_70",
  "SequenceVariant": "SK_OSP",
  "SeriesDescription": "ep2d_p2_Task_3.5_measurment:237",
  "SeriesNumber": 5,
  "ShimSetting": [2592, -4495, -3268, 501, 59, -72, 0, 12],
  "SliceThickness": 3.5,
  "SliceTiming": [0.99, 0, 1.0475, 0.0575, 1.105, 0.115, 1.165, 0.175, 1.2225, 0.2325, 1.28, 0.29, 1.3375, 0.3475, 1.3975, 0.4075, 1.455, 0.465, 1.5125, 0.5225, 1.5725, 0.5825, 1.63, 0.64, 1.6875, 0.6975, 1.745, 0.755, 1.805, 0.815, 1.8625, 0.8725, 1.92, 0.93],
  "SoftwareVersions": "syngo_MR_E11",
  "SpacingBetweenSlices": 3.85,
  "StationName": "AWP66088",
  "TaskName": "categorySelectivity",
  "TotalReadoutTime": 0.0253573,
  "TxRefAmp": 217.748,
  "dcmmeta_affine": [
    [-3.5380563735961914, -0.09264729917049408, -0.1732262223958969, 130.27708435058594],
    [-0.030072275549173355, 3.312041759490967, -1.3665196895599365, -83.10671997070312],
    [-0.18190567195415497, 1.2544453144073486, 3.595151662826538, -77.4163818359375],
    [0.0, 0.0, 0.0, 1.0]
],
  "dcmmeta_reorient_transform": [
    [0.0, -1.0, 0.0, 69.0],
    [1.0, 0.0, 0.0, 0.0],
    [0.0, 0.0, 1.0, 0.0],
    [0.0, 0.0, 0.0, 1.0]
],
  "dcmmeta_shape": [70, 70, 34, 237],
  "dcmmeta_slice_dim": 2,
  "dcmmeta_version": 0.6,
  "global": {
    "const": {
      "AccessionNumber": "M.BRZ",
      "AcquisitionMatrix": [70, 0, 0, 70],
      "AngioFlag": "N",
      "BitsAllocated": 16,
      "BitsStored": 12,
      "BodyPartExamined": "HEAD",
      "Columns": 420,
      "EchoNumbers": 1,
      "EchoTime": 30.0,
      "EchoTrainLength": 53,
      "FlipAngle": 90.0,
      "HighBit": 11,
      "ImageOrientationPatient": [0.99864493689366, 0.00848814237185, -0.0513443420031, -0.0261504463715, 0.93485047274574, -0.3540773189031],
      "ImagePositionPatient": [-726.83101435467, -730.29409984023, 260.50178291447],
      "ImageType": [
        "ORIGINAL",
        "PRIMARY",
        "M",
        "ND",
        "NORM",
        "MOSAIC"
],
      "ImagedNucleus": "1H",
      "ImagingFrequency": 123.19117,
      "InPlanePhaseEncodingDirection": "COL",
      "MRAcquisitionType": "2D",
      "MagneticFieldStrength": 3.0,
      "Manufacturer": "SIEMENS",
      "ManufacturerModelName": "Prisma",
      "Modality": "MR",
      "NumberOfAverages": 1.0,
      "NumberOfPhaseEncodingSteps": 105,
      "PercentPhaseFieldOfView": 100.0,
      "PercentSampling": 100.0,
      "PerformedProcedureStepStartTime": "143258.097000",
      "PhotometricInterpretation": "MONOCHROME2",
      "PixelBandwidth": 2465.0,
      "PixelRepresentation": 0,
      "PixelSpacing": [3.542857170105, 3.542857170105],
      "ProtocolName": "ep2d_p2_Task_3.5_measurment:237",
      "RepetitionTime": 2000.0,
      "Rows": 420,
      "SAR": 0.07985176631371,
      "SamplesPerPixel": 1,
      "ScanOptions": "FS",
      "ScanningSequence": "EP",
      "SequenceName": "*epfid2d1_70",
      "SequenceVariant": [
        "SK",
        "OSP"
],
      "SeriesDescription": "ep2d_p2_Task_3.5_measurment:237",
      "SeriesNumber": 5,
      "SeriesTime": "145730.590000",
      "SliceLocation": -48.655600486828,
      "SliceThickness": 3.5,
      "SmallestImagePixelValue": 0,
      "SoftwareVersions": "syngo MR E11",
      "SpacingBetweenSlices": 3.8499999362283,
      "SpecificCharacterSet": "ISO_IR 100",
      "StudyID": "1",
      "StudyTime": "143258.017000",
      "TransmitCoilName": "Body",
      "VariableFlipAngleFlag": "N",
      "WindowCenterWidthExplanation": "Algo1",
      "dBdt": 0.0},
    "slices": {}
  },
  "time": {
    "samples": {
      "AcquisitionNumber": [1, 2, 3, 4, 5, 6, 7, 8, 9, 10, 11, 12, 13, 14, 15, 16, 17, 18, 19, 20, 21, 22, 23, 24, 25, 26, 27, 28, 29, 30, 31, 32, 33, 34, 35, 36, 37, 38, 39, 40, 41, 42, 43, 44, 45, 46, 47, 48, 49, 50, 51, 52, 53, 54, 55, 56, 57, 58, 59, 60, 61, 62, 63, 64, 65, 66, 67, 68, 69, 70, 71, 72, 73, 74, 75, 76, 77, 78, 79, 80, 81, 82, 83, 84, 85, 86, 87, 88, 89, 90, 91, 92, 93, 94, 95, 96, 97, 98, 99, 100, 101, 102, 103, 104, 105, 106, 107, 108, 109, 110, 111, 112, 113, 114, 115, 116, 117, 118, 119, 120, 121, 122, 123, 124, 125, 126, 127, 128, 129, 130, 131, 132, 133, 134, 135, 136, 137, 138, 139, 140, 141, 142, 143, 144, 145, 146, 147, 148, 149, 150, 151, 152, 153, 154, 155, 156, 157, 158, 159, 160, 161, 162, 163, 164, 165, 166, 167, 168, 169, 170, 171, 172, 173, 174, 175, 176, 177, 178, 179, 180, 181, 182, 183, 184, 185, 186, 187, 188, 189, 190, 191, 192, 193, 194, 195, 196, 197, 198, 199, 200, 201, 202, 203, 204, 205, 206, 207, 208, 209, 210, 211, 212, 213, 214, 215, 216, 217, 218, 219, 220, 221, 222, 223, 224, 225, 226, 227, 228, 229, 230, 231, 232, 233, 234, 235, 236, 237],
      "AcquisitionTime": ["145637.062500", "145639.062500", "145641.062500", "145643.062500", "145645.062500", "145647.062500", "145649.062500", "145651.062500", "145653.062500", "145655.062500", "145657.062500", "145659.062500", "145701.062500", "145703.062500", "145705.062500", "145707.062500", "145709.062500", "145711.062500", "145713.062500", "145715.062500", "145717.062500", "145719.062500", "145721.062500", "145723.062500", "145725.062500", "145727.062500", "145729.062500", "145731.062500", "145733.062500", "145735.062500", "145737.062500", "145739.062500", "145741.062500", "145743.062500", "145745.062500", "145747.062500", "145749.062500", "145751.062500", "145753.062500", "145755.062500", "145757.062500", "145759.062500", "145801.062500", "145803.062500", "145805.062500", "145807.062500", "145809.062500", "145811.062500", "145813.062500", "145815.062500", "145817.062500", "145819.062500", "145821.062500", "145823.062500", "145825.062500", "145827.062500", "145829.062500", "145831.062500", "145833.062500", "145835.062500", "145837.062500", "145839.062500", "145841.062500", "145843.062500", "145845.062500", "145847.062500", "145849.062500", "145851.062500", "145853.062500", "145855.062500", "145857.062500", "145859.062500", "145901.062500", "145903.062500", "145905.062500", "145907.062500", "145909.062500", "145911.062500", "145913.062500", "145915.062500", "145917.062500", "145919.062500", "145921.062500", "145923.062500", "145925.062500", "145927.062500", "145929.062500", "145931.062500", "145933.062500", "145935.062500", "145937.062500", "145939.062500", "145941.062500", "145943.062500", "145945.062500", "145947.062500", "145949.062500", "145951.062500", "145953.062500", "145955.062500", "145957.062500", "145959.062500", "150001.062500", "150003.062500", "150005.062500", "150007.062500", "150009.062500", "150011.062500", "150013.062500", "150015.062500", "150017.062500", "150019.062500", "150021.062500", "150023.062500", "150025.062500", "150027.062500", "150029.062500", "150031.062500", "150033.062500", "150035.062500", "150037.062500", "150039.062500", "150041.062500", "150043.062500", "150045.062500", "150047.062500", "150049.062500", "150051.062500", "150053.062500", "150055.062500", "150057.062500", "150059.062500", "150101.062500", "150103.062500", "150105.062500", "150107.062500", "150109.062500", "150111.062500", "150113.062500", "150115.062500", "150117.062500", "150119.062500", "150121.062500", "150123.062500", "150125.062500", "150127.062500", "150129.062500", "150131.062500", "150133.062500", "150135.062500", "150137.062500", "150139.062500", "150141.062500", "150143.062500", "150145.062500", "150147.062500", "150149.062500", "150151.062500", "150153.062500", "150155.062500", "150157.062500", "150159.062500", "150201.062500", "150203.062500", "150205.062500", "150207.062500", "150209.062500", "150211.062500", "150213.062500", "150215.062500", "150217.062500", "150219.062500", "150221.062500", "150223.062500", "150225.062500", "150227.062500", "150229.062500", "150231.062500", "150233.062500", "150235.062500", "150237.062500", "150239.062500", "150241.062500", "150243.062500", "150245.062500", "150247.062500", "150249.062500", "150251.062500", "150253.062500", "150255.062500", "150257.062500", "150259.062500", "150301.062500", "150303.062500", "150305.062500", "150307.062500", "150309.062500", "150311.062500", "150313.062500", "150315.062500", "150317.062500", "150319.062500", "150321.062500", "150323.062500", "150325.062500", "150327.062500", "150329.062500", "150331.062500", "150333.062500", "150335.062500", "150337.062500", "150339.062500", "150341.062500", "150343.062500", "150345.062500", "150347.062500", "150349.062500", "150351.062500", "150353.062500", "150355.062500", "150357.062500", "150359.062500", "150401.062500", "150403.062500", "150405.062500", "150407.062500", "150409.062500", "150411.062500", "150413.062500", "150415.062500", "150417.062500", "150419.062500", "150421.062500", "150423.062500", "150425.062500", "150427.062500", "150429.062500"],
      "ContentTime": ["145730.594000", "145730.598000", "145730.601000", "145730.605000", "145730.608000", "145730.611000", "145730.614000", "145730.617000", "145730.620000", "145730.624000", "145730.627000", "145730.630000", "145730.633000", "145730.636000", "145730.639000", "145730.642000", "145730.645000", "145730.649000", "145730.660000", "145730.678000", "145730.681000", "145730.684000", "145730.687000", "145730.690000", "145730.694000", "145730.697000", "145730.700000", "145810.589000", "145810.592000", "145810.595000", "145810.599000", "145810.602000", "145810.605000", "145810.608000", "145810.611000", "145810.614000", "145810.618000", "145810.621000", "145810.624000", "145810.631000", "145810.634000", "145810.637000", "145810.640000", "145810.643000", "145810.647000", "145810.650000", "145810.653000", "145850.588000", "145850.591000", "145850.594000", "145850.596000", "145850.599000", "145850.601000", "145850.604000", "145850.606000", "145850.609000", "145850.612000", "145850.614000", "145850.617000", "145850.619000", "145850.622000", "145850.624000", "145850.627000", "145850.630000", "145850.632000", "145850.635000", "145850.639000", "145930.589000", "145930.592000", "145930.595000", "145930.599000", "145930.602000", "145930.606000", "145930.609000", "145930.612000", "145930.615000", "145930.618000", "145930.621000", "145930.625000", "145930.628000", "145930.631000", "145930.634000", "145930.637000", "145930.640000", "145930.643000", "145930.646000", "145930.649000", "150010.589000", "150010.592000", "150010.596000", "150010.599000", "150010.603000", "150010.606000", "150010.609000", "150010.612000", "150010.615000", "150010.619000", "150010.622000", "150010.625000", "150010.628000", "150010.631000", "150010.634000", "150010.638000", "150010.641000", "150010.644000", "150010.647000", "150010.650000", "150050.589000", "150050.591000", "150050.594000", "150050.597000", "150050.599000", "150050.602000", "150050.604000", "150050.607000", "150050.609000", "150050.612000", "150050.614000", "150050.617000", "150050.620000", "150050.622000", "150050.625000", "150050.627000", "150050.630000", "150050.633000", "150050.635000", "150050.638000", "150130.589000", "150130.593000", "150130.596000", "150130.599000", "150130.603000", "150130.606000", "150130.609000", "150130.612000", "150130.615000", "150130.618000", "150130.622000", "150130.625000", "150130.628000", "150130.631000", "150130.634000", "150130.637000", "150130.641000", "150130.644000", "150130.647000", "150130.650000", "150210.589000", "150210.592000", "150210.596000", "150210.599000", "150210.602000", "150210.605000", "150210.609000", "150210.612000", "150210.615000", "150210.618000", "150210.622000", "150210.625000", "150210.629000", "150210.632000", "150210.635000", "150210.638000", "150210.642000", "150210.645000", "150210.648000", "150210.651000", "150250.588000", "150250.591000", "150250.593000", "150250.596000", "150250.598000", "150250.601000", "150250.603000", "150250.606000", "150250.617000", "150250.620000", "150250.622000", "150250.624000", "150250.627000", "150250.629000", "150250.631000", "150250.634000", "150250.636000", "150250.639000", "150250.641000", "150250.644000", "150330.589000", "150330.592000", "150330.596000", "150330.599000", "150330.602000", "150330.605000", "150330.609000", "150330.612000", "150330.615000", "150330.619000", "150330.622000", "150330.626000", "150330.629000", "150330.632000", "150330.636000", "150330.639000", "150330.642000", "150330.645000", "150330.649000", "150330.652000", "150410.589000", "150410.593000", "150410.596000", "150410.599000", "150410.603000", "150410.606000", "150410.609000", "150410.612000", "150410.616000", "150410.619000", "150410.622000", "150410.626000", "150410.629000", "150410.632000", "150410.635000", "150410.639000", "150410.642000", "150410.645000", "150410.649000", "150410.652000", "150430.318000", "150430.321000", "150430.324000", "150430.328000", "150430.331000", "150430.334000", "150430.337000", "150430.341000", "150430.344000", "150430.348000"],
      "InstanceCreationTime": ["145730.594000", "145730.598000", "145730.601000", "145730.605000", "145730.608000", "145730.611000", "145730.614000", "145730.617000", "145730.620000", "145730.624000", "145730.627000", "145730.630000", "145730.633000", "145730.636000", "145730.639000", "145730.642000", "145730.645000", "145730.649000", "145730.660000", "145730.678000", "145730.681000", "145730.684000", "145730.687000", "145730.690000", "145730.694000", "145730.697000", "145730.700000", "145810.589000", "145810.592000", "145810.595000", "145810.599000", "145810.602000", "145810.605000", "145810.608000", "145810.611000", "145810.614000", "145810.618000", "145810.621000", "145810.624000", "145810.631000", "145810.634000", "145810.637000", "145810.640000", "145810.643000", "145810.647000", "145810.650000", "145810.653000", "145850.588000", "145850.591000", "145850.594000", "145850.596000", "145850.599000", "145850.601000", "145850.604000", "145850.606000", "145850.609000", "145850.612000", "145850.614000", "145850.617000", "145850.619000", "145850.622000", "145850.624000", "145850.627000", "145850.630000", "145850.632000", "145850.635000", "145850.639000", "145930.589000", "145930.592000", "145930.595000", "145930.599000", "145930.602000", "145930.606000", "145930.609000", "145930.612000", "145930.615000", "145930.618000", "145930.621000", "145930.625000", "145930.628000", "145930.631000", "145930.634000", "145930.637000", "145930.640000", "145930.643000", "145930.646000", "145930.649000", "150010.589000", "150010.592000", "150010.596000", "150010.599000", "150010.603000", "150010.606000", "150010.609000", "150010.612000", "150010.615000", "150010.619000", "150010.622000", "150010.625000", "150010.628000", "150010.631000", "150010.634000", "150010.638000", "150010.641000", "150010.644000", "150010.647000", "150010.650000", "150050.589000", "150050.591000", "150050.594000", "150050.597000", "150050.599000", "150050.602000", "150050.604000", "150050.607000", "150050.609000", "150050.612000", "150050.614000", "150050.617000", "150050.620000", "150050.622000", "150050.625000", "150050.627000", "150050.630000", "150050.633000", "150050.635000", "150050.638000", "150130.589000", "150130.593000", "150130.596000", "150130.599000", "150130.603000", "150130.606000", "150130.609000", "150130.612000", "150130.615000", "150130.618000", "150130.622000", "150130.625000", "150130.628000", "150130.631000", "150130.634000", "150130.637000", "150130.641000", "150130.644000", "150130.647000", "150130.650000", "150210.589000", "150210.592000", "150210.596000", "150210.599000", "150210.602000", "150210.605000", "150210.609000", "150210.612000", "150210.615000", "150210.618000", "150210.622000", "150210.625000", "150210.629000", "150210.632000", "150210.635000", "150210.638000", "150210.642000", "150210.645000", "150210.648000", "150210.651000", "150250.588000", "150250.591000", "150250.593000", "150250.596000", "150250.598000", "150250.601000", "150250.603000", "150250.606000", "150250.617000", "150250.620000", "150250.622000", "150250.624000", "150250.627000", "150250.629000", "150250.631000", "150250.634000", "150250.636000", "150250.639000", "150250.641000", "150250.644000", "150330.589000", "150330.592000", "150330.596000", "150330.599000", "150330.602000", "150330.605000", "150330.609000", "150330.612000", "150330.615000", "150330.619000", "150330.622000", "150330.626000", "150330.629000", "150330.632000", "150330.636000", "150330.639000", "150330.642000", "150330.645000", "150330.649000", "150330.652000", "150410.589000", "150410.593000", "150410.596000", "150410.599000", "150410.603000", "150410.606000", "150410.609000", "150410.612000", "150410.616000", "150410.619000", "150410.622000", "150410.626000", "150410.629000", "150410.632000", "150410.635000", "150410.639000", "150410.642000", "150410.645000", "150410.649000", "150410.652000", "150430.318000", "150430.321000", "150430.324000", "150430.328000", "150430.331000", "150430.334000", "150430.337000", "150430.341000", "150430.344000", "150430.348000"],
      "InstanceNumber": [1, 2, 3, 4, 5, 6, 7, 8, 9, 10, 11, 12, 13, 14, 15, 16, 17, 18, 19, 20, 21, 22, 23, 24, 25, 26, 27, 28, 29, 30, 31, 32, 33, 34, 35, 36, 37, 38, 39, 40, 41, 42, 43, 44, 45, 46, 47, 48, 49, 50, 51, 52, 53, 54, 55, 56, 57, 58, 59, 60, 61, 62, 63, 64, 65, 66, 67, 68, 69, 70, 71, 72, 73, 74, 75, 76, 77, 78, 79, 80, 81, 82, 83, 84, 85, 86, 87, 88, 89, 90, 91, 92, 93, 94, 95, 96, 97, 98, 99, 100, 101, 102, 103, 104, 105, 106, 107, 108, 109, 110, 111, 112, 113, 114, 115, 116, 117, 118, 119, 120, 121, 122, 123, 124, 125, 126, 127, 128, 129, 130, 131, 132, 133, 134, 135, 136, 137, 138, 139, 140, 141, 142, 143, 144, 145, 146, 147, 148, 149, 150, 151, 152, 153, 154, 155, 156, 157, 158, 159, 160, 161, 162, 163, 164, 165, 166, 167, 168, 169, 170, 171, 172, 173, 174, 175, 176, 177, 178, 179, 180, 181, 182, 183, 184, 185, 186, 187, 188, 189, 190, 191, 192, 193, 194, 195, 196, 197, 198, 199, 200, 201, 202, 203, 204, 205, 206, 207, 208, 209, 210, 211, 212, 213, 214, 215, 216, 217, 218, 219, 220, 221, 222, 223, 224, 225, 226, 227, 228, 229, 230, 231, 232, 233, 234, 235, 236, 237],
      "LargestImagePixelValue": [1481, 2349, 1829, 2298, 1517, 1519, 1866, 1453, 1528, 1464, 1650, 2225, 1586, 2313, 1755, 2248, 1457, 1723, 1461, 1476, 1610, 2333, 2603, 1869, 2244, 1502, 1523, 1496, 1487, 1428, 1444, 1907, 2337, 1764, 1992, 1640, 2204, 1474, 2265, 1705, 1856, 2321, 1623, 1662, 1482, 1509, 1442, 1680, 2250, 1680, 2310, 1749, 1902, 1705, 1505, 1737, 1431, 1640, 1573, 2291, 1816, 2284, 1457, 1519, 1906, 2111, 2483, 1774, 1609, 1595, 1501, 2107, 1555, 1736, 1438, 1524, 1434, 1536, 1475, 2301, 1832, 2504, 1632, 1807, 2087, 2283, 2382, 1774, 1555, 1942, 1507, 2175, 1515, 1537, 1430, 1534, 1451, 1492, 1468, 2188, 1454, 2047, 1691, 2373, 1825, 2380, 1664, 2128, 2235, 1583, 1799, 1442, 1888, 1851, 2341, 1819, 1566, 2268, 1440, 1568, 1465, 2140, 1460, 2135, 1447, 2018, 1458, 1530, 1461, 2164, 1993, 1956, 2239, 1841, 2375, 1686, 1801, 1453, 1535, 1504, 1529, 1475, 1854, 2363, 1603, 2325, 1488, 2184, 1756, 1616, 1467, 1534, 2218, 2188, 2433, 2434, 1603, 1571, 1461, 1676, 1460, 1814, 1518, 1524, 2157, 1551, 1571, 1465, 1519, 1425, 2255, 1691, 2369, 1848, 2382, 1659, 1792, 2056, 1446, 1542, 1520, 2391, 1746, 2335, 1691, 1689, 1487, 2207, 1721, 2270, 1492, 1524, 1498, 1534, 1568, 1488, 1528, 1504, 1857, 2332, 2182, 2178, 2235, 1589, 2265, 1473, 1954, 1541, 2241, 1471, 1543, 1458, 2201, 1603, 2345, 1629, 2255, 1812, 1545, 1591, 1427, 2006, 1592, 2261, 1673, 2371, 2092, 1582, 2098, 1552, 2076, 1792, 2376, 2344, 1883, 1901, 1570],
      "WindowCenter": [630.0, 633.0, 630.0, 631.0, 627.0, 628.0, 630.0, 628.0, 629.0, 628.0, 630.0, 633.0, 629.0, 633.0, 630.0, 632.0, 628.0, 629.0, 629.0, 630.0, 630.0, 632.0, 632.0, 628.0, 629.0, 626.0, 626.0, 627.0, 628.0, 628.0, 630.0, 632.0, 633.0, 630.0, 632.0, 630.0, 633.0, 629.0, 632.0, 630.0, 630.0, 631.0, 628.0, 629.0, 628.0, 629.0, 628.0, 630.0, 631.0, 629.0, 631.0, 628.0, 629.0, 629.0, 629.0, 630.0, 629.0, 631.0, 631.0, 633.0, 630.0, 632.0, 628.0, 629.0, 630.0, 630.0, 631.0, 628.0, 627.0, 627.0, 628.0, 631.0, 628.0, 630.0, 628.0, 629.0, 629.0, 630.0, 630.0, 633.0, 630.0, 633.0, 629.0, 630.0, 631.0, 629.0, 629.0, 627.0, 626.0, 628.0, 627.0, 630.0, 626.0, 626.0, 627.0, 629.0, 629.0, 630.0, 630.0, 633.0, 630.0, 633.0, 631.0, 633.0, 631.0, 632.0, 628.0, 630.0, 631.0, 629.0, 630.0, 629.0, 631.0, 630.0, 631.0, 629.0, 628.0, 631.0, 628.0, 629.0, 628.0, 632.0, 629.0, 632.0, 629.0, 631.0, 629.0, 629.0, 629.0, 632.0, 631.0, 630.0, 631.0, 630.0, 631.0, 629.0, 630.0, 628.0, 629.0, 629.0, 630.0, 631.0, 632.0, 633.0, 629.0, 631.0, 628.0, 631.0, 629.0, 630.0, 628.0, 629.0, 632.0, 631.0, 628.0, 628.0, 624.0, 625.0, 626.0, 628.0, 626.0, 628.0, 627.0, 628.0, 631.0, 629.0, 629.0, 630.0, 632.0, 631.0, 635.0, 632.0, 634.0, 631.0, 631.0, 627.0, 629.0, 630.0, 629.0, 630.0, 630.0, 633.0, 630.0, 632.0, 630.0, 630.0, 629.0, 632.0, 629.0, 630.0, 627.0, 628.0, 628.0, 629.0, 629.0, 629.0, 630.0, 630.0, 632.0, 633.0, 632.0, 631.0, 631.0, 629.0, 631.0, 628.0, 632.0, 629.0, 633.0, 629.0, 631.0, 630.0, 633.0, 630.0, 632.0, 629.0, 632.0, 630.0, 629.0, 630.0, 630.0, 633.0, 630.0, 633.0, 630.0, 632.0, 631.0, 629.0, 633.0, 631.0, 633.0, 632.0, 632.0, 629.0, 627.0, 627.0, 625.0],
      "WindowWidth": [1363.0, 1370.0, 1362.0, 1364.0, 1353.0, 1355.0, 1361.0, 1356.0, 1358.0, 1358.0, 1362.0, 1368.0, 1360.0, 1368.0, 1362.0, 1366.0, 1357.0, 1359.0, 1359.0, 1361.0, 1363.0, 1367.0, 1366.0, 1356.0, 1359.0, 1350.0, 1352.0, 1354.0, 1355.0, 1357.0, 1361.0, 1366.0, 1369.0, 1362.0, 1366.0, 1363.0, 1369.0, 1359.0, 1367.0, 1360.0, 1362.0, 1364.0, 1356.0, 1358.0, 1358.0, 1358.0, 1357.0, 1361.0, 1365.0, 1358.0, 1363.0, 1357.0, 1358.0, 1358.0, 1358.0, 1362.0, 1359.0, 1365.0, 1364.0, 1369.0, 1362.0, 1366.0, 1357.0, 1359.0, 1362.0, 1361.0, 1363.0, 1356.0, 1354.0, 1354.0, 1355.0, 1364.0, 1357.0, 1361.0, 1358.0, 1360.0, 1360.0, 1363.0, 1362.0, 1369.0, 1363.0, 1369.0, 1360.0, 1363.0, 1363.0, 1359.0, 1357.0, 1352.0, 1352.0, 1356.0, 1353.0, 1360.0, 1352.0, 1353.0, 1354.0, 1358.0, 1360.0, 1363.0, 1361.0, 1370.0, 1362.0, 1369.0, 1365.0, 1370.0, 1363.0, 1366.0, 1357.0, 1362.0, 1363.0, 1358.0, 1362.0, 1358.0, 1365.0, 1362.0, 1363.0, 1359.0, 1356.0, 1363.0, 1357.0, 1360.0, 1357.0, 1368.0, 1359.0, 1367.0, 1358.0, 1364.0, 1359.0, 1360.0, 1360.0, 1367.0, 1364.0, 1362.0, 1365.0, 1360.0, 1364.0, 1358.0, 1360.0, 1356.0, 1359.0, 1359.0, 1363.0, 1364.0, 1367.0, 1370.0, 1360.0, 1365.0, 1356.0, 1364.0, 1360.0, 1362.0, 1356.0, 1360.0, 1366.0, 1365.0, 1356.0, 1354.0, 1347.0, 1346.0, 1350.0, 1355.0, 1352.0, 1356.0, 1353.0, 1358.0, 1364.0, 1358.0, 1360.0, 1363.0, 1367.0, 1365.0, 1375.0, 1366.0, 1371.0, 1363.0, 1365.0, 1355.0, 1358.0, 1362.0, 1359.0, 1363.0, 1362.0, 1369.0, 1362.0, 1367.0, 1360.0, 1361.0, 1359.0, 1366.0, 1358.0, 1361.0, 1353.0, 1356.0, 1356.0, 1359.0, 1360.0, 1360.0, 1362.0, 1363.0, 1367.0, 1369.0, 1366.0, 1364.0, 1364.0, 1358.0, 1364.0, 1357.0, 1366.0, 1361.0, 1369.0, 1359.0, 1364.0, 1363.0, 1369.0, 1361.0, 1366.0, 1360.0, 1366.0, 1361.0, 1359.0, 1362.0, 1363.0, 1369.0, 1363.0, 1369.0, 1361.0, 1366.0, 1363.0, 1358.0, 1369.0, 1365.0, 1369.0, 1366.0, 1367.0, 1357.0, 1352.0, 1352.0, 1349.0]
    },
    "slices": {}
  }
}