{
  "AcquisitionMatrixPE": 70,
  "AcquisitionNumber": 1,
  "AcquisitionTime": "09:43:38.107500",
  "BandwidthPerPixelPhaseEncode": 38.873,
  "BaseResolution": 70,
  "BodyPartExamined": "HEAD",
  "ConsistencyInfo": "N4_VE11B_LATEST_20150530",
  "ConversionSoftware": "dcm2niix",
  "ConversionSoftwareVersion": "v1.0.20190410  GCC6.3.0",
  "DerivedVendorReportedEchoSpacing": 0.000489996,
  "DeviceSerialNumber": "66088",
  "DwellTime": 2.9e-06,
  "EchoTime": 0.03,
  "EchoTrainLength": 53,
  "EffectiveEchoSpacing": 0.000367497,
  "FlipAngle": 90,
  "ImageOrientationPatientDICOM": [0.996966, -0.0365506, 0.068719, 0.0592308, 0.929059, -0.365159],
  "ImageType": [
    "ORIGINAL",
    "PRIMARY",
    "M",
    "ND",
    "NORM",
    "MOSAIC"
],
  "ImagingFrequency": 123.191,
  "InPlanePhaseEncodingDirectionDICOM": "COL",
  "InstitutionAddress": "Street_StreetNo_City_District_IR_ZIP",
  "InstitutionName": "NBML",
  "InstitutionalDepartmentName": "Department",
  "MRAcquisitionType": "2D",
  "MagneticFieldStrength": 3,
  "Manufacturer": "Siemens",
  "ManufacturersModelName": "Prisma",
  "Modality": "MR",
  "ParallelReductionFactorInPlane": 2,
  "PartialFourier": 1,
  "PatientPosition": "HFS",
  "PercentPhaseFOV": 100,
  "PhaseEncodingDirection": "j-",
  "PhaseEncodingSteps": 105,
  "PhaseOversampling": 0.5,
  "PhaseResolution": 1,
  "PixelBandwidth": 2465,
  "ProcedureStepDescription": "NBML_Project_P-96169-Ebrahiminiya",
  "ProtocolName": "ep2d_p2_Task_3.5_measurment:237",
  "PulseSequenceDetails": "%SiemensSeq%_ep2d_pace",
  "ReceiveCoilActiveElements": "HC1-7;NC1",
  "ReceiveCoilName": "HeadNeck_64",
  "ReconMatrixPE": 70,
  "RefLinesPE": 24,
  "RepetitionTime": 2,
  "SAR": 0.0885816,
  "ScanOptions": "FS",
  "ScanningSequence": "EP",
  "SequenceName": "_epfid2d1_70",
  "SequenceVariant": "SK_OSP",
  "SeriesDescription": "ep2d_p2_Task_3.5_measurment:237",
  "SeriesNumber": 9,
  "ShimSetting": [2597, -4477, -3269, 463, -70, 2, -132, -8],
  "SliceThickness": 3.5,
  "SliceTiming": [0.99, 0, 1.0475, 0.0575, 1.105, 0.115, 1.165, 0.175, 1.2225, 0.2325, 1.28, 0.29, 1.3375, 0.3475, 1.3975, 0.4075, 1.455, 0.465, 1.5125, 0.5225, 1.5725, 0.5825, 1.63, 0.64, 1.6875, 0.6975, 1.745, 0.7575, 1.805, 0.815, 1.8625, 0.8725, 1.92, 0.93],
  "SoftwareVersions": "syngo_MR_E11",
  "SpacingBetweenSlices": 3.85,
  "StationName": "AWP66088",
  "TaskName": "categorySelectivity",
  "TotalReadoutTime": 0.0253573,
  "TxRefAmp": 226.646,
  "dcmmeta_affine": [
    [-3.532109022140503, 0.2098461538553238, 0.1944141387939453, 125.29190063476562],
    [0.12949369847774506, 3.291522741317749, -1.4172691106796265, -78.08816528320312],
    [0.24346157908439636, 1.2937074899673462, 3.5743601322174072, -103.57437133789062],
    [0.0, 0.0, 0.0, 1.0]
],
  "dcmmeta_reorient_transform": [
    [0.0, -1.0, 0.0, 69.0],
    [1.0, 0.0, 0.0, 0.0],
    [0.0, 0.0, 1.0, 0.0],
    [0.0, 0.0, 0.0, 1.0]
],
  "dcmmeta_shape": [70, 70, 34, 237],
  "dcmmeta_slice_dim": 2,
  "dcmmeta_version": 0.6,
  "global": {
    "const": {
      "AcquisitionMatrix": [70, 0, 0, 70],
      "AngioFlag": "N",
      "BitsAllocated": 16,
      "BitsStored": 12,
      "BodyPartExamined": "HEAD",
      "Columns": 420,
      "EchoNumbers": 1,
      "EchoTime": 30.0,
      "EchoTrainLength": 53,
      "FlipAngle": 90.0,
      "HighBit": 11,
      "ImageOrientationPatient": [0.99696627351701, -0.0365506387732, 0.06871899500772, 0.05923076907969, 0.92905885414834, -0.3651593645558],
      "ImagePositionPatient": [-794.61345836617, -702.3820057128, 169.48447126527],
      "ImageType": [
        "ORIGINAL",
        "PRIMARY",
        "M",
        "ND",
        "NORM",
        "MOSAIC"
],
      "ImagedNucleus": "1H",
      "ImagingFrequency": 123.191169,
      "InPlanePhaseEncodingDirection": "COL",
      "MRAcquisitionType": "2D",
      "MagneticFieldStrength": 3.0,
      "Manufacturer": "SIEMENS",
      "ManufacturerModelName": "Prisma",
      "Modality": "MR",
      "NumberOfAverages": 1.0,
      "NumberOfPhaseEncodingSteps": 105,
      "PercentPhaseFieldOfView": 100.0,
      "PercentSampling": 100.0,
      "PerformedProcedureStepStartTime": "083033.904000",
      "PhotometricInterpretation": "MONOCHROME2",
      "PixelBandwidth": 2465.0,
      "PixelRepresentation": 0,
      "PixelSpacing": [3.542857170105, 3.542857170105],
      "ProtocolName": "ep2d_p2_Task_3.5_measurment:237",
      "RepetitionTime": 2000.0,
      "Rows": 420,
      "SAR": 0.0885815808737,
      "SamplesPerPixel": 1,
      "ScanOptions": "FS",
      "ScanningSequence": "EP",
      "SequenceName": "*epfid2d1_70",
      "SequenceVariant": [
        "SK",
        "OSP"
],
      "SeriesDescription": "ep2d_p2_Task_3.5_measurment:237",
      "SeriesNumber": 9,
      "SeriesTime": "094421.580000",
      "SliceLocation": -61.086146581105,
      "SliceThickness": 3.5,
      "SmallestImagePixelValue": 0,
      "SoftwareVersions": "syngo MR E11",
      "SpacingBetweenSlices": 3.8499998551093,
      "SpecificCharacterSet": "ISO_IR 100",
      "StudyID": "1",
      "StudyTime": "083033.767000",
      "TransmitCoilName": "Body",
      "VariableFlipAngleFlag": "N",
      "WindowCenterWidthExplanation": "Algo1",
      "dBdt": 0.0},
    "slices": {}
  },
  "time": {
    "samples": {
      "AcquisitionNumber": [1, 2, 3, 4, 5, 6, 7, 8, 9, 10, 11, 12, 13, 14, 15, 16, 17, 18, 19, 20, 21, 22, 23, 24, 25, 26, 27, 28, 29, 30, 31, 32, 33, 34, 35, 36, 37, 38, 39, 40, 41, 42, 43, 44, 45, 46, 47, 48, 49, 50, 51, 52, 53, 54, 55, 56, 57, 58, 59, 60, 61, 62, 63, 64, 65, 66, 67, 68, 69, 70, 71, 72, 73, 74, 75, 76, 77, 78, 79, 80, 81, 82, 83, 84, 85, 86, 87, 88, 89, 90, 91, 92, 93, 94, 95, 96, 97, 98, 99, 100, 101, 102, 103, 104, 105, 106, 107, 108, 109, 110, 111, 112, 113, 114, 115, 116, 117, 118, 119, 120, 121, 122, 123, 124, 125, 126, 127, 128, 129, 130, 131, 132, 133, 134, 135, 136, 137, 138, 139, 140, 141, 142, 143, 144, 145, 146, 147, 148, 149, 150, 151, 152, 153, 154, 155, 156, 157, 158, 159, 160, 161, 162, 163, 164, 165, 166, 167, 168, 169, 170, 171, 172, 173, 174, 175, 176, 177, 178, 179, 180, 181, 182, 183, 184, 185, 186, 187, 188, 189, 190, 191, 192, 193, 194, 195, 196, 197, 198, 199, 200, 201, 202, 203, 204, 205, 206, 207, 208, 209, 210, 211, 212, 213, 214, 215, 216, 217, 218, 219, 220, 221, 222, 223, 224, 225, 226, 227, 228, 229, 230, 231, 232, 233, 234, 235, 236, 237],
      "AcquisitionTime": ["094338.107500", "094340.107500", "094342.107500", "094344.107500", "094346.107500", "094348.107500", "094350.107500", "094352.107500", "094354.107500", "094356.107500", "094358.107500", "094400.107500", "094402.107500", "094404.107500", "094406.107500", "094408.107500", "094410.107500", "094412.107500", "094414.107500", "094416.107500", "094418.107500", "094420.107500", "094422.107500", "094424.107500", "094426.107500", "094428.107500", "094430.107500", "094432.107500", "094434.107500", "094436.107500", "094438.107500", "094440.107500", "094442.107500", "094444.107500", "094446.107500", "094448.107500", "094450.107500", "094452.107500", "094454.107500", "094456.107500", "094458.107500", "094500.107500", "094502.107500", "094504.107500", "094506.107500", "094508.107500", "094510.107500", "094512.107500", "094514.107500", "094516.107500", "094518.107500", "094520.107500", "094522.107500", "094524.107500", "094526.107500", "094528.107500", "094530.107500", "094532.107500", "094534.107500", "094536.107500", "094538.107500", "094540.107500", "094542.107500", "094544.107500", "094546.107500", "094548.107500", "094550.107500", "094552.107500", "094554.107500", "094556.107500", "094558.107500", "094600.107500", "094602.107500", "094604.107500", "094606.107500", "094608.107500", "094610.107500", "094612.107500", "094614.107500", "094616.107500", "094618.107500", "094620.107500", "094622.107500", "094624.107500", "094626.107500", "094628.107500", "094630.107500", "094632.107500", "094634.107500", "094636.107500", "094638.107500", "094640.107500", "094642.107500", "094644.107500", "094646.107500", "094648.107500", "094650.107500", "094652.107500", "094654.107500", "094656.107500", "094658.107500", "094700.107500", "094702.107500", "094704.107500", "094706.107500", "094708.107500", "094710.107500", "094712.107500", "094714.107500", "094716.107500", "094718.107500", "094720.107500", "094722.107500", "094724.107500", "094726.107500", "094728.107500", "094730.107500", "094732.107500", "094734.107500", "094736.107500", "094738.107500", "094740.107500", "094742.107500", "094744.107500", "094746.107500", "094748.107500", "094750.107500", "094752.107500", "094754.107500", "094756.107500", "094758.107500", "094800.107500", "094802.107500", "094804.107500", "094806.107500", "094808.107500", "094810.107500", "094812.107500", "094814.107500", "094816.107500", "094818.107500", "094820.107500", "094822.107500", "094824.107500", "094826.107500", "094828.107500", "094830.107500", "094832.107500", "094834.107500", "094836.107500", "094838.107500", "094840.107500", "094842.107500", "094844.107500", "094846.107500", "094848.107500", "094850.107500", "094852.107500", "094854.107500", "094856.107500", "094858.107500", "094900.107500", "094902.107500", "094904.107500", "094906.107500", "094908.107500", "094910.107500", "094912.107500", "094914.107500", "094916.107500", "094918.107500", "094920.107500", "094922.107500", "094924.107500", "094926.107500", "094928.107500", "094930.107500", "094932.107500", "094934.107500", "094936.107500", "094938.107500", "094940.107500", "094942.107500", "094944.107500", "094946.107500", "094948.107500", "094950.107500", "094952.107500", "094954.107500", "094956.107500", "094958.107500", "095000.107500", "095002.107500", "095004.107500", "095006.107500", "095008.107500", "095010.107500", "095012.107500", "095014.107500", "095016.107500", "095018.107500", "095020.107500", "095022.107500", "095024.107500", "095026.107500", "095028.107500", "095030.107500", "095032.107500", "095034.107500", "095036.107500", "095038.107500", "095040.107500", "095042.107500", "095044.107500", "095046.107500", "095048.107500", "095050.107500", "095052.107500", "095054.107500", "095056.107500", "095058.107500", "095100.107500", "095102.107500", "095104.107500", "095106.107500", "095108.107500", "095110.107500", "095112.107500", "095114.107500", "095116.107500", "095118.107500", "095120.107500", "095122.107500", "095124.107500", "095126.107500", "095128.107500", "095130.107500"],
      "ContentTime": ["094421.585000", "094421.588000", "094421.590000", "094421.593000", "094421.595000", "094421.598000", "094421.600000", "094421.603000", "094421.605000", "094421.607000", "094421.610000", "094421.612000", "094421.615000", "094421.617000", "094421.619000", "094421.622000", "094421.624000", "094421.627000", "094421.629000", "094421.632000", "094421.634000", "094501.578000", "094501.581000", "094501.584000", "094501.586000", "094501.589000", "094501.591000", "094501.594000", "094501.596000", "094501.598000", "094501.601000", "094501.603000", "094501.606000", "094501.608000", "094501.611000", "094501.613000", "094501.615000", "094501.618000", "094501.620000", "094501.623000", "094501.625000", "094541.579000", "094541.582000", "094541.584000", "094541.587000", "094541.590000", "094541.592000", "094541.595000", "094541.597000", "094541.600000", "094541.603000", "094541.605000", "094541.608000", "094541.610000", "094541.613000", "094541.615000", "094541.618000", "094541.621000", "094541.623000", "094541.626000", "094541.628000", "094621.579000", "094621.581000", "094621.584000", "094621.586000", "094621.589000", "094621.592000", "094621.594000", "094621.597000", "094621.599000", "094621.601000", "094621.604000", "094621.606000", "094621.609000", "094621.611000", "094621.614000", "094621.616000", "094621.618000", "094621.621000", "094621.623000", "094621.626000", "094701.578000", "094701.581000", "094701.584000", "094701.586000", "094701.589000", "094701.591000", "094701.603000", "094701.606000", "094701.608000", "094701.611000", "094701.613000", "094701.616000", "094701.618000", "094701.621000", "094701.624000", "094701.626000", "094701.629000", "094701.631000", "094701.634000", "094701.637000", "094741.578000", "094741.581000", "094741.584000", "094741.586000", "094741.589000", "094741.591000", "094741.593000", "094741.596000", "094741.598000", "094741.601000", "094741.603000", "094741.605000", "094741.608000", "094741.610000", "094741.613000", "094741.615000", "094741.634000", "094741.636000", "094741.639000", "094741.641000", "094801.579000", "094801.581000", "094801.584000", "094801.586000", "094801.589000", "094801.591000", "094801.594000", "094801.596000", "094801.599000", "094801.601000", "094841.579000", "094841.581000", "094841.584000", "094841.586000", "094841.589000", "094841.591000", "094841.594000", "094841.596000", "094841.599000", "094841.601000", "094841.604000", "094841.606000", "094841.609000", "094841.611000", "094841.614000", "094841.616000", "094841.618000", "094841.621000", "094841.623000", "094841.626000", "094921.579000", "094921.581000", "094921.584000", "094921.586000", "094921.589000", "094921.591000", "094921.594000", "094921.596000", "094921.598000", "094921.601000", "094921.603000", "094921.606000", "094921.608000", "094921.611000", "094921.613000", "094921.615000", "094921.618000", "094921.620000", "094921.623000", "094921.625000", "095001.579000", "095001.582000", "095001.584000", "095001.587000", "095001.589000", "095001.592000", "095001.594000", "095001.597000", "095001.599000", "095001.602000", "095001.604000", "095001.606000", "095001.609000", "095001.611000", "095001.614000", "095001.616000", "095001.619000", "095001.621000", "095001.624000", "095001.626000", "095041.579000", "095041.582000", "095041.584000", "095041.587000", "095041.590000", "095041.592000", "095041.595000", "095041.598000", "095041.600000", "095041.603000", "095041.605000", "095041.608000", "095041.611000", "095041.613000", "095041.616000", "095041.619000", "095041.621000", "095041.624000", "095041.626000", "095041.629000", "095121.579000", "095121.582000", "095121.584000", "095121.587000", "095121.590000", "095121.592000", "095121.595000", "095121.597000", "095121.600000", "095121.603000", "095121.605000", "095121.608000", "095121.611000", "095121.613000", "095121.616000", "095121.618000", "095121.621000", "095121.624000", "095121.626000", "095121.629000", "095131.998000", "095132.002000", "095132.004000", "095132.007000", "095132.010000", "095132.012000"],
      "InstanceCreationTime": ["094421.585000", "094421.588000", "094421.590000", "094421.593000", "094421.595000", "094421.598000", "094421.600000", "094421.603000", "094421.605000", "094421.607000", "094421.610000", "094421.612000", "094421.615000", "094421.617000", "094421.619000", "094421.622000", "094421.624000", "094421.627000", "094421.629000", "094421.632000", "094421.634000", "094501.578000", "094501.581000", "094501.584000", "094501.586000", "094501.589000", "094501.591000", "094501.594000", "094501.596000", "094501.598000", "094501.601000", "094501.603000", "094501.606000", "094501.608000", "094501.611000", "094501.613000", "094501.615000", "094501.618000", "094501.620000", "094501.623000", "094501.625000", "094541.579000", "094541.582000", "094541.584000", "094541.587000", "094541.590000", "094541.592000", "094541.595000", "094541.597000", "094541.600000", "094541.603000", "094541.605000", "094541.608000", "094541.610000", "094541.613000", "094541.615000", "094541.618000", "094541.621000", "094541.623000", "094541.626000", "094541.628000", "094621.579000", "094621.581000", "094621.584000", "094621.586000", "094621.589000", "094621.592000", "094621.594000", "094621.597000", "094621.599000", "094621.601000", "094621.604000", "094621.606000", "094621.609000", "094621.611000", "094621.614000", "094621.616000", "094621.618000", "094621.621000", "094621.623000", "094621.626000", "094701.578000", "094701.581000", "094701.584000", "094701.586000", "094701.589000", "094701.591000", "094701.603000", "094701.606000", "094701.608000", "094701.611000", "094701.613000", "094701.616000", "094701.618000", "094701.621000", "094701.624000", "094701.626000", "094701.629000", "094701.631000", "094701.634000", "094701.637000", "094741.578000", "094741.581000", "094741.584000", "094741.586000", "094741.589000", "094741.591000", "094741.593000", "094741.596000", "094741.598000", "094741.601000", "094741.603000", "094741.605000", "094741.608000", "094741.610000", "094741.613000", "094741.615000", "094741.634000", "094741.636000", "094741.639000", "094741.641000", "094801.579000", "094801.581000", "094801.584000", "094801.586000", "094801.589000", "094801.591000", "094801.594000", "094801.596000", "094801.599000", "094801.601000", "094841.579000", "094841.581000", "094841.584000", "094841.586000", "094841.589000", "094841.591000", "094841.594000", "094841.596000", "094841.599000", "094841.601000", "094841.604000", "094841.606000", "094841.609000", "094841.611000", "094841.614000", "094841.616000", "094841.618000", "094841.621000", "094841.623000", "094841.626000", "094921.579000", "094921.581000", "094921.584000", "094921.586000", "094921.589000", "094921.591000", "094921.594000", "094921.596000", "094921.598000", "094921.601000", "094921.603000", "094921.606000", "094921.608000", "094921.611000", "094921.613000", "094921.615000", "094921.618000", "094921.620000", "094921.623000", "094921.625000", "095001.579000", "095001.582000", "095001.584000", "095001.587000", "095001.589000", "095001.592000", "095001.594000", "095001.597000", "095001.599000", "095001.602000", "095001.604000", "095001.606000", "095001.609000", "095001.611000", "095001.614000", "095001.616000", "095001.619000", "095001.621000", "095001.624000", "095001.626000", "095041.579000", "095041.582000", "095041.584000", "095041.587000", "095041.590000", "095041.592000", "095041.595000", "095041.598000", "095041.600000", "095041.603000", "095041.605000", "095041.608000", "095041.611000", "095041.613000", "095041.616000", "095041.619000", "095041.621000", "095041.624000", "095041.626000", "095041.629000", "095121.579000", "095121.582000", "095121.584000", "095121.587000", "095121.590000", "095121.592000", "095121.595000", "095121.597000", "095121.600000", "095121.603000", "095121.605000", "095121.608000", "095121.611000", "095121.613000", "095121.616000", "095121.618000", "095121.621000", "095121.624000", "095121.626000", "095121.629000", "095131.998000", "095132.002000", "095132.004000", "095132.007000", "095132.010000", "095132.012000"],
      "InstanceNumber": [1, 2, 3, 4, 5, 6, 7, 8, 9, 10, 11, 12, 13, 14, 15, 16, 17, 18, 19, 20, 21, 22, 23, 24, 25, 26, 27, 28, 29, 30, 31, 32, 33, 34, 35, 36, 37, 38, 39, 40, 41, 42, 43, 44, 45, 46, 47, 48, 49, 50, 51, 52, 53, 54, 55, 56, 57, 58, 59, 60, 61, 62, 63, 64, 65, 66, 67, 68, 69, 70, 71, 72, 73, 74, 75, 76, 77, 78, 79, 80, 81, 82, 83, 84, 85, 86, 87, 88, 89, 90, 91, 92, 93, 94, 95, 96, 97, 98, 99, 100, 101, 102, 103, 104, 105, 106, 107, 108, 109, 110, 111, 112, 113, 114, 115, 116, 117, 118, 119, 120, 121, 122, 123, 124, 125, 126, 127, 128, 129, 130, 131, 132, 133, 134, 135, 136, 137, 138, 139, 140, 141, 142, 143, 144, 145, 146, 147, 148, 149, 150, 151, 152, 153, 154, 155, 156, 157, 158, 159, 160, 161, 162, 163, 164, 165, 166, 167, 168, 169, 170, 171, 172, 173, 174, 175, 176, 177, 178, 179, 180, 181, 182, 183, 184, 185, 186, 187, 188, 189, 190, 191, 192, 193, 194, 195, 196, 197, 198, 199, 200, 201, 202, 203, 204, 205, 206, 207, 208, 209, 210, 211, 212, 213, 214, 215, 216, 217, 218, 219, 220, 221, 222, 223, 224, 225, 226, 227, 228, 229, 230, 231, 232, 233, 234, 235, 236, 237],
      "LargestImagePixelValue": [1610, 1476, 1422, 1412, 2064, 1521, 1380, 1436, 1394, 1438, 1495, 1379, 1640, 1462, 1404, 1390, 1412, 1740, 1982, 1932, 1642, 1390, 1378, 1393, 1429, 1935, 1392, 1713, 1997, 1421, 1406, 1433, 2040, 1639, 1474, 1686, 1389, 1387, 1768, 1385, 1384, 1571, 2084, 1422, 1395, 1402, 1926, 1409, 1404, 1961, 1440, 1401, 1426, 1544, 2089, 1570, 1408, 1731, 1423, 1420, 1586, 1433, 1513, 2069, 1494, 1445, 1400, 1429, 1526, 1769, 1694, 1496, 1421, 1602, 1661, 1839, 1438, 1587, 2166, 1510, 1439, 1432, 1673, 1536, 1492, 1456, 1442, 1938, 1826, 2037, 1495, 1491, 1464, 1967, 1577, 1480, 1854, 1681, 1455, 1461, 1486, 1733, 1588, 1521, 1946, 1665, 1720, 1693, 1973, 1466, 1481, 1476, 1481, 1912, 1488, 1477, 1488, 1539, 1610, 2274, 1686, 1673, 1558, 1530, 1494, 1769, 1675, 1981, 1472, 1451, 1472, 1470, 1720, 1484, 1474, 1526, 1623, 1461, 1583, 1472, 2061, 2120, 1631, 1403, 1723, 1842, 1369, 1422, 1431, 1565, 1423, 1414, 1400, 1473, 1407, 1487, 1523, 1816, 1404, 1588, 1425, 1791, 1428, 1560, 1444, 1429, 1476, 1459, 2218, 2122, 1713, 1429, 1481, 1596, 1688, 1453, 1466, 1556, 1834, 1434, 1449, 1479, 1443, 1400, 1664, 1429, 1688, 2122, 1596, 1516, 1403, 1516, 1481, 1479, 1416, 1661, 1467, 1801, 1428, 1411, 2063, 1600, 1434, 1618, 1417, 1425, 1480, 1564, 1440, 1802, 1944, 1452, 1459, 1460, 1436, 1726, 1446, 1444, 1440, 1754, 2090, 1426, 1445, 1462, 1456, 1777, 1996, 1479, 1448, 1471, 1445, 1459, 1485, 1471, 1448, 1989, 1582],
      "WindowCenter": [648.0, 646.0, 646.0, 646.0, 649.0, 646.0, 645.0, 647.0, 646.0, 646.0, 647.0, 646.0, 647.0, 647.0, 646.0, 647.0, 648.0, 650.0, 650.0, 649.0, 647.0, 646.0, 646.0, 646.0, 647.0, 650.0, 647.0, 648.0, 649.0, 646.0, 647.0, 648.0, 650.0, 647.0, 645.0, 647.0, 646.0, 646.0, 649.0, 647.0, 647.0, 647.0, 649.0, 647.0, 646.0, 646.0, 648.0, 646.0, 646.0, 648.0, 646.0, 646.0, 647.0, 647.0, 649.0, 647.0, 646.0, 649.0, 647.0, 647.0, 647.0, 647.0, 647.0, 649.0, 646.0, 647.0, 646.0, 646.0, 647.0, 648.0, 647.0, 647.0, 647.0, 648.0, 648.0, 648.0, 647.0, 647.0, 649.0, 646.0, 646.0, 646.0, 647.0, 646.0, 646.0, 647.0, 647.0, 650.0, 647.0, 647.0, 645.0, 646.0, 647.0, 650.0, 648.0, 647.0, 648.0, 647.0, 646.0, 647.0, 648.0, 650.0, 649.0, 647.0, 649.0, 647.0, 647.0, 647.0, 647.0, 644.0, 646.0, 648.0, 648.0, 650.0, 647.0, 647.0, 648.0, 648.0, 648.0, 651.0, 648.0, 647.0, 647.0, 647.0, 648.0, 650.0, 648.0, 649.0, 646.0, 647.0, 648.0, 647.0, 648.0, 648.0, 648.0, 647.0, 648.0, 647.0, 648.0, 647.0, 650.0, 650.0, 648.0, 644.0, 644.0, 644.0, 642.0, 643.0, 645.0, 647.0, 646.0, 646.0, 645.0, 646.0, 646.0, 647.0, 647.0, 648.0, 646.0, 647.0, 645.0, 647.0, 645.0, 647.0, 646.0, 647.0, 647.0, 646.0, 647.0, 646.0, 644.0, 644.0, 645.0, 647.0, 646.0, 645.0, 645.0, 647.0, 647.0, 645.0, 645.0, 646.0, 645.0, 645.0, 647.0, 646.0, 646.0, 647.0, 644.0, 643.0, 644.0, 644.0, 644.0, 645.0, 645.0, 648.0, 646.0, 647.0, 646.0, 646.0, 648.0, 646.0, 645.0, 646.0, 645.0, 645.0, 646.0, 646.0, 646.0, 647.0, 646.0, 643.0, 645.0, 646.0, 646.0, 648.0, 646.0, 645.0, 645.0, 647.0, 648.0, 645.0, 645.0, 645.0, 646.0, 648.0, 648.0, 645.0, 645.0, 645.0, 645.0, 646.0, 646.0, 646.0, 647.0, 648.0, 646.0],
      "WindowWidth": [1403.0, 1398.0, 1397.0, 1398.0, 1404.0, 1398.0, 1396.0, 1399.0, 1397.0, 1397.0, 1399.0, 1398.0, 1400.0, 1400.0, 1399.0, 1400.0, 1403.0, 1409.0, 1407.0, 1405.0, 1401.0, 1398.0, 1397.0, 1399.0, 1402.0, 1407.0, 1400.0, 1403.0, 1405.0, 1398.0, 1399.0, 1402.0, 1407.0, 1400.0, 1396.0, 1399.0, 1397.0, 1398.0, 1404.0, 1399.0, 1400.0, 1401.0, 1406.0, 1399.0, 1399.0, 1397.0, 1402.0, 1398.0, 1398.0, 1403.0, 1397.0, 1398.0, 1401.0, 1400.0, 1405.0, 1400.0, 1398.0, 1404.0, 1400.0, 1399.0, 1400.0, 1400.0, 1400.0, 1404.0, 1398.0, 1399.0, 1397.0, 1398.0, 1399.0, 1402.0, 1400.0, 1400.0, 1400.0, 1402.0, 1404.0, 1402.0, 1399.0, 1400.0, 1405.0, 1397.0, 1398.0, 1399.0, 1400.0, 1398.0, 1399.0, 1400.0, 1401.0, 1407.0, 1400.0, 1400.0, 1395.0, 1398.0, 1401.0, 1407.0, 1403.0, 1399.0, 1402.0, 1400.0, 1398.0, 1399.0, 1401.0, 1407.0, 1405.0, 1401.0, 1404.0, 1399.0, 1400.0, 1399.0, 1399.0, 1393.0, 1397.0, 1402.0, 1402.0, 1407.0, 1401.0, 1400.0, 1403.0, 1404.0, 1404.0, 1409.0, 1401.0, 1399.0, 1399.0, 1402.0, 1404.0, 1408.0, 1403.0, 1405.0, 1398.0, 1400.0, 1402.0, 1401.0, 1403.0, 1402.0, 1402.0, 1401.0, 1402.0, 1400.0, 1402.0, 1401.0, 1408.0, 1408.0, 1403.0, 1393.0, 1392.0, 1390.0, 1386.0, 1391.0, 1394.0, 1398.0, 1397.0, 1397.0, 1395.0, 1397.0, 1398.0, 1401.0, 1401.0, 1402.0, 1397.0, 1399.0, 1395.0, 1399.0, 1395.0, 1399.0, 1398.0, 1399.0, 1399.0, 1397.0, 1399.0, 1395.0, 1392.0, 1391.0, 1395.0, 1398.0, 1398.0, 1395.0, 1396.0, 1398.0, 1398.0, 1394.0, 1395.0, 1398.0, 1395.0, 1395.0, 1399.0, 1397.0, 1396.0, 1398.0, 1391.0, 1389.0, 1391.0, 1393.0, 1392.0, 1394.0, 1396.0, 1402.0, 1397.0, 1401.0, 1397.0, 1397.0, 1403.0, 1397.0, 1393.0, 1396.0, 1395.0, 1395.0, 1397.0, 1398.0, 1398.0, 1399.0, 1396.0, 1390.0, 1396.0, 1398.0, 1398.0, 1401.0, 1397.0, 1395.0, 1396.0, 1399.0, 1402.0, 1395.0, 1395.0, 1395.0, 1396.0, 1401.0, 1402.0, 1395.0, 1394.0, 1395.0, 1396.0, 1397.0, 1397.0, 1398.0, 1398.0, 1402.0, 1396.0]
    },
    "slices": {}
  }
}