{
  "AcquisitionMatrixPE": 70,
  "AcquisitionNumber": 1,
  "AcquisitionTime": "08:49:45.912500",
  "BandwidthPerPixelPhaseEncode": 38.873,
  "BaseResolution": 70,
  "BodyPartExamined": "HEAD",
  "ConsistencyInfo": "N4_VE11B_LATEST_20150530",
  "ConversionSoftware": "dcm2niix",
  "ConversionSoftwareVersion": "v1.0.20190410  GCC6.3.0",
  "DerivedVendorReportedEchoSpacing": 0.000489996,
  "DeviceSerialNumber": "66088",
  "DwellTime": 2.9e-06,
  "EchoTime": 0.03,
  "EchoTrainLength": 53,
  "EffectiveEchoSpacing": 0.000367497,
  "FlipAngle": 90,
  "ImageOrientationPatientDICOM": [0.996966, -0.0365506, 0.068719, 0.0592308, 0.929059, -0.365159],
  "ImageType": [
    "ORIGINAL",
    "PRIMARY",
    "M",
    "ND",
    "NORM",
    "MOSAIC"
],
  "ImagingFrequency": 123.191,
  "InPlanePhaseEncodingDirectionDICOM": "COL",
  "InstitutionAddress": "Street_StreetNo_City_District_IR_ZIP",
  "InstitutionName": "NBML",
  "InstitutionalDepartmentName": "Department",
  "MRAcquisitionType": "2D",
  "MagneticFieldStrength": 3,
  "Manufacturer": "Siemens",
  "ManufacturersModelName": "Prisma",
  "Modality": "MR",
  "ParallelReductionFactorInPlane": 2,
  "PartialFourier": 1,
  "PatientPosition": "HFS",
  "PercentPhaseFOV": 100,
  "PhaseEncodingDirection": "j-",
  "PhaseEncodingSteps": 105,
  "PhaseOversampling": 0.5,
  "PhaseResolution": 1,
  "PixelBandwidth": 2465,
  "ProcedureStepDescription": "NBML_Project_P-96169-Ebrahiminiya",
  "ProtocolName": "ep2d_p2_Task_3.5_measurment:237",
  "PulseSequenceDetails": "%SiemensSeq%_ep2d_pace",
  "ReceiveCoilActiveElements": "HC1-7;NC1",
  "ReceiveCoilName": "HeadNeck_64",
  "ReconMatrixPE": 70,
  "RefLinesPE": 24,
  "RepetitionTime": 2,
  "SAR": 0.0885816,
  "ScanOptions": "FS",
  "ScanningSequence": "EP",
  "SequenceName": "_epfid2d1_70",
  "SequenceVariant": "SK_OSP",
  "SeriesDescription": "ep2d_p2_Task_3.5_measurment:237",
  "SeriesNumber": 3,
  "ShimSetting": [2597, -4477, -3269, 463, -70, 2, -132, -8],
  "SliceThickness": 3.5,
  "SliceTiming": [0.99, 0, 1.0475, 0.0575, 1.1075, 0.1175, 1.165, 0.175, 1.2225, 0.2325, 1.28, 0.29, 1.34, 0.35, 1.3975, 0.4075, 1.455, 0.465, 1.515, 0.525, 1.5725, 0.5825, 1.63, 0.64, 1.6875, 0.7, 1.7475, 0.7575, 1.805, 0.815, 1.8625, 0.8725, 1.9225, 0.9325],
  "SoftwareVersions": "syngo_MR_E11",
  "SpacingBetweenSlices": 3.85,
  "StationName": "AWP66088",
  "TaskName": "categorySelectivity",
  "TotalReadoutTime": 0.0253573,
  "TxRefAmp": 226.646,
  "dcmmeta_affine": [
    [-3.532109022140503, 0.2098461538553238, 0.1944141387939453, 125.29190063476562],
    [0.12949369847774506, 3.291522741317749, -1.4172691106796265, -78.08816528320312],
    [0.24346157908439636, 1.2937074899673462, 3.5743601322174072, -103.57437133789062],
    [0.0, 0.0, 0.0, 1.0]
],
  "dcmmeta_reorient_transform": [
    [0.0, -1.0, 0.0, 69.0],
    [1.0, 0.0, 0.0, 0.0],
    [0.0, 0.0, 1.0, 0.0],
    [0.0, 0.0, 0.0, 1.0]
],
  "dcmmeta_shape": [70, 70, 34, 237],
  "dcmmeta_slice_dim": 2,
  "dcmmeta_version": 0.6,
  "global": {
    "const": {
      "AcquisitionMatrix": [70, 0, 0, 70],
      "AngioFlag": "N",
      "BitsAllocated": 16,
      "BitsStored": 12,
      "BodyPartExamined": "HEAD",
      "Columns": 420,
      "EchoNumbers": 1,
      "EchoTime": 30.0,
      "EchoTrainLength": 53,
      "FlipAngle": 90.0,
      "HighBit": 11,
      "ImageOrientationPatient": [0.99696627351701, -0.0365506387732, 0.06871899500772, 0.05923076907969, 0.92905885414834, -0.3651593645558],
      "ImagePositionPatient": [-794.61345836617, -702.3820057128, 169.48447126527],
      "ImageType": [
        "ORIGINAL",
        "PRIMARY",
        "M",
        "ND",
        "NORM",
        "MOSAIC"
],
      "ImagedNucleus": "1H",
      "ImagingFrequency": 123.191186,
      "InPlanePhaseEncodingDirection": "COL",
      "MRAcquisitionType": "2D",
      "MagneticFieldStrength": 3.0,
      "Manufacturer": "SIEMENS",
      "ManufacturerModelName": "Prisma",
      "Modality": "MR",
      "NumberOfAverages": 1.0,
      "NumberOfPhaseEncodingSteps": 105,
      "PercentPhaseFieldOfView": 100.0,
      "PercentSampling": 100.0,
      "PerformedProcedureStepStartTime": "083033.904000",
      "PhotometricInterpretation": "MONOCHROME2",
      "PixelBandwidth": 2465.0,
      "PixelRepresentation": 0,
      "PixelSpacing": [3.542857170105, 3.542857170105],
      "ProtocolName": "ep2d_p2_Task_3.5_measurment:237",
      "RepetitionTime": 2000.0,
      "Rows": 420,
      "SAR": 0.0885815808737,
      "SamplesPerPixel": 1,
      "ScanOptions": "FS",
      "ScanningSequence": "EP",
      "SequenceName": "*epfid2d1_70",
      "SequenceVariant": [
        "SK",
        "OSP"
],
      "SeriesDescription": "ep2d_p2_Task_3.5_measurment:237",
      "SeriesNumber": 3,
      "SeriesTime": "085041.603000",
      "SliceLocation": -61.086146581105,
      "SliceThickness": 3.5,
      "SmallestImagePixelValue": 0,
      "SoftwareVersions": "syngo MR E11",
      "SpacingBetweenSlices": 3.8499998551093,
      "SpecificCharacterSet": "ISO_IR 100",
      "StudyID": "1",
      "StudyTime": "083033.767000",
      "TransmitCoilName": "Body",
      "VariableFlipAngleFlag": "N",
      "WindowCenterWidthExplanation": "Algo1",
      "dBdt": 0.0},
    "slices": {}
  },
  "time": {
    "samples": {
      "AcquisitionNumber": [1, 2, 3, 4, 5, 6, 7, 8, 9, 10, 11, 12, 13, 14, 15, 16, 17, 18, 19, 20, 21, 22, 23, 24, 25, 26, 27, 28, 29, 30, 31, 32, 33, 34, 35, 36, 37, 38, 39, 40, 41, 42, 43, 44, 45, 46, 47, 48, 49, 50, 51, 52, 53, 54, 55, 56, 57, 58, 59, 60, 61, 62, 63, 64, 65, 66, 67, 68, 69, 70, 71, 72, 73, 74, 75, 76, 77, 78, 79, 80, 81, 82, 83, 84, 85, 86, 87, 88, 89, 90, 91, 92, 93, 94, 95, 96, 97, 98, 99, 100, 101, 102, 103, 104, 105, 106, 107, 108, 109, 110, 111, 112, 113, 114, 115, 116, 117, 118, 119, 120, 121, 122, 123, 124, 125, 126, 127, 128, 129, 130, 131, 132, 133, 134, 135, 136, 137, 138, 139, 140, 141, 142, 143, 144, 145, 146, 147, 148, 149, 150, 151, 152, 153, 154, 155, 156, 157, 158, 159, 160, 161, 162, 163, 164, 165, 166, 167, 168, 169, 170, 171, 172, 173, 174, 175, 176, 177, 178, 179, 180, 181, 182, 183, 184, 185, 186, 187, 188, 189, 190, 191, 192, 193, 194, 195, 196, 197, 198, 199, 200, 201, 202, 203, 204, 205, 206, 207, 208, 209, 210, 211, 212, 213, 214, 215, 216, 217, 218, 219, 220, 221, 222, 223, 224, 225, 226, 227, 228, 229, 230, 231, 232, 233, 234, 235, 236, 237],
      "AcquisitionTime": ["084945.912500", "084947.912500", "084949.912500", "084951.912500", "084953.912500", "084955.912500", "084957.912500", "084959.912500", "085001.912500", "085003.912500", "085005.912500", "085007.912500", "085009.912500", "085011.912500", "085013.912500", "085015.912500", "085017.912500", "085019.912500", "085021.912500", "085023.912500", "085025.912500", "085027.912500", "085029.912500", "085031.912500", "085033.912500", "085035.912500", "085037.912500", "085039.912500", "085041.912500", "085043.912500", "085045.912500", "085047.912500", "085049.912500", "085051.912500", "085053.912500", "085055.912500", "085057.912500", "085059.912500", "085101.912500", "085103.912500", "085105.912500", "085107.912500", "085109.912500", "085111.912500", "085113.912500", "085115.912500", "085117.912500", "085119.912500", "085121.912500", "085123.912500", "085125.912500", "085127.912500", "085129.912500", "085131.912500", "085133.912500", "085135.912500", "085137.912500", "085139.912500", "085141.912500", "085143.912500", "085145.912500", "085147.912500", "085149.912500", "085151.912500", "085153.912500", "085155.912500", "085157.912500", "085159.912500", "085201.912500", "085203.912500", "085205.912500", "085207.912500", "085209.912500", "085211.912500", "085213.912500", "085215.912500", "085217.912500", "085219.912500", "085221.912500", "085223.912500", "085225.912500", "085227.912500", "085229.912500", "085231.912500", "085233.912500", "085235.912500", "085237.912500", "085239.912500", "085241.912500", "085243.912500", "085245.912500", "085247.912500", "085249.912500", "085251.912500", "085253.912500", "085255.912500", "085257.912500", "085259.912500", "085301.912500", "085303.912500", "085305.912500", "085307.912500", "085309.912500", "085311.912500", "085313.912500", "085315.912500", "085317.912500", "085319.912500", "085321.912500", "085323.912500", "085325.912500", "085327.912500", "085329.912500", "085331.912500", "085333.912500", "085335.912500", "085337.912500", "085339.912500", "085341.912500", "085343.912500", "085345.912500", "085347.912500", "085349.912500", "085351.912500", "085353.912500", "085355.912500", "085357.912500", "085359.912500", "085401.912500", "085403.912500", "085405.912500", "085407.912500", "085409.912500", "085411.912500", "085413.912500", "085415.912500", "085417.912500", "085419.912500", "085421.912500", "085423.912500", "085425.912500", "085427.912500", "085429.912500", "085431.912500", "085433.912500", "085435.912500", "085437.912500", "085439.912500", "085441.912500", "085443.912500", "085445.912500", "085447.912500", "085449.912500", "085451.912500", "085453.912500", "085455.912500", "085457.912500", "085459.912500", "085501.912500", "085503.912500", "085505.912500", "085507.912500", "085509.912500", "085511.912500", "085513.912500", "085515.912500", "085517.912500", "085519.912500", "085521.912500", "085523.912500", "085525.912500", "085527.912500", "085529.912500", "085531.912500", "085533.912500", "085535.912500", "085537.912500", "085539.912500", "085541.912500", "085543.912500", "085545.912500", "085547.912500", "085549.912500", "085551.912500", "085553.912500", "085555.912500", "085557.912500", "085559.912500", "085601.912500", "085603.912500", "085605.912500", "085607.912500", "085609.912500", "085611.912500", "085613.912500", "085615.912500", "085617.912500", "085619.912500", "085621.912500", "085623.912500", "085625.912500", "085627.912500", "085629.912500", "085631.912500", "085633.912500", "085635.912500", "085637.912500", "085639.912500", "085641.912500", "085643.912500", "085645.912500", "085647.912500", "085649.912500", "085651.912500", "085653.912500", "085655.912500", "085657.912500", "085659.912500", "085701.912500", "085703.912500", "085705.912500", "085707.912500", "085709.912500", "085711.912500", "085713.912500", "085715.912500", "085717.912500", "085719.912500", "085721.912500", "085723.912500", "085725.912500", "085727.912500", "085729.912500", "085731.912500", "085733.912500", "085735.912500", "085737.912500"],
      "ContentTime": ["085041.609000", "085041.618000", "085041.620000", "085041.623000", "085041.625000", "085041.628000", "085041.630000", "085041.632000", "085041.635000", "085041.638000", "085041.640000", "085041.643000", "085041.645000", "085041.648000", "085041.650000", "085041.653000", "085041.655000", "085041.657000", "085041.665000", "085041.668000", "085041.671000", "085041.673000", "085041.677000", "085041.680000", "085041.682000", "085041.685000", "085041.687000", "085041.690000", "085121.579000", "085121.582000", "085121.590000", "085121.593000", "085121.595000", "085121.598000", "085121.600000", "085121.603000", "085121.605000", "085121.608000", "085121.610000", "085121.613000", "085121.616000", "085121.618000", "085121.621000", "085121.623000", "085121.626000", "085121.628000", "085121.631000", "085121.633000", "085201.579000", "085201.582000", "085201.585000", "085201.587000", "085201.590000", "085201.592000", "085201.594000", "085201.597000", "085201.599000", "085201.602000", "085201.605000", "085201.607000", "085201.610000", "085201.612000", "085201.614000", "085201.617000", "085201.619000", "085201.622000", "085201.624000", "085201.627000", "085241.580000", "085241.583000", "085241.585000", "085241.588000", "085241.590000", "085241.592000", "085241.595000", "085241.597000", "085241.600000", "085241.602000", "085241.605000", "085241.607000", "085241.610000", "085241.612000", "085241.614000", "085241.617000", "085241.619000", "085241.622000", "085241.624000", "085241.627000", "085321.579000", "085321.589000", "085321.592000", "085321.594000", "085321.596000", "085321.599000", "085321.601000", "085321.604000", "085321.606000", "085321.608000", "085321.611000", "085321.613000", "085321.616000", "085321.618000", "085321.621000", "085321.623000", "085321.625000", "085321.628000", "085321.638000", "085321.640000", "085401.579000", "085401.582000", "085401.585000", "085401.587000", "085401.590000", "085401.601000", "085401.604000", "085401.606000", "085401.609000", "085401.611000", "085401.614000", "085401.616000", "085401.619000", "085401.621000", "085401.624000", "085401.626000", "085401.628000", "085401.631000", "085401.633000", "085401.636000", "085441.579000", "085441.582000", "085441.584000", "085441.587000", "085441.589000", "085441.592000", "085441.594000", "085441.597000", "085441.599000", "085441.602000", "085441.604000", "085441.607000", "085441.609000", "085441.612000", "085441.614000", "085441.617000", "085441.619000", "085441.621000", "085441.624000", "085441.626000", "085521.579000", "085521.582000", "085521.584000", "085521.587000", "085521.589000", "085521.592000", "085521.594000", "085521.596000", "085521.599000", "085521.602000", "085521.604000", "085521.606000", "085521.609000", "085521.611000", "085521.614000", "085521.616000", "085521.618000", "085521.621000", "085521.623000", "085521.626000", "085601.579000", "085601.582000", "085601.585000", "085601.587000", "085601.589000", "085601.592000", "085601.602000", "085601.605000", "085601.607000", "085601.610000", "085601.619000", "085601.621000", "085601.624000", "085601.626000", "085601.628000", "085601.631000", "085601.634000", "085601.636000", "085601.639000", "085601.641000", "085641.579000", "085641.582000", "085641.585000", "085641.587000", "085641.590000", "085641.592000", "085641.594000", "085641.597000", "085641.599000", "085641.602000", "085641.604000", "085641.607000", "085641.609000", "085641.612000", "085641.614000", "085641.617000", "085641.619000", "085641.622000", "085641.624000", "085641.627000", "085721.581000", "085721.585000", "085721.587000", "085721.590000", "085721.592000", "085721.595000", "085721.597000", "085721.600000", "085721.603000", "085721.605000", "085721.608000", "085721.611000", "085721.613000", "085721.616000", "085721.618000", "085721.621000", "085721.623000", "085721.626000", "085721.629000", "085721.631000", "085739.287000", "085739.290000", "085739.292000", "085739.294000", "085739.297000", "085739.300000", "085739.302000", "085739.305000", "085739.307000"],
      "InstanceCreationTime": ["085041.609000", "085041.618000", "085041.620000", "085041.623000", "085041.625000", "085041.628000", "085041.630000", "085041.632000", "085041.635000", "085041.638000", "085041.640000", "085041.643000", "085041.645000", "085041.648000", "085041.650000", "085041.653000", "085041.655000", "085041.657000", "085041.665000", "085041.668000", "085041.671000", "085041.673000", "085041.677000", "085041.680000", "085041.682000", "085041.685000", "085041.687000", "085041.690000", "085121.579000", "085121.582000", "085121.590000", "085121.593000", "085121.595000", "085121.598000", "085121.600000", "085121.603000", "085121.605000", "085121.608000", "085121.610000", "085121.613000", "085121.616000", "085121.618000", "085121.621000", "085121.623000", "085121.626000", "085121.628000", "085121.631000", "085121.633000", "085201.579000", "085201.582000", "085201.585000", "085201.587000", "085201.590000", "085201.592000", "085201.594000", "085201.597000", "085201.599000", "085201.602000", "085201.605000", "085201.607000", "085201.610000", "085201.612000", "085201.614000", "085201.617000", "085201.619000", "085201.622000", "085201.624000", "085201.627000", "085241.580000", "085241.583000", "085241.585000", "085241.588000", "085241.590000", "085241.592000", "085241.595000", "085241.597000", "085241.600000", "085241.602000", "085241.605000", "085241.607000", "085241.610000", "085241.612000", "085241.614000", "085241.617000", "085241.619000", "085241.622000", "085241.624000", "085241.627000", "085321.579000", "085321.589000", "085321.592000", "085321.594000", "085321.596000", "085321.599000", "085321.601000", "085321.604000", "085321.606000", "085321.608000", "085321.611000", "085321.613000", "085321.616000", "085321.618000", "085321.621000", "085321.623000", "085321.625000", "085321.628000", "085321.638000", "085321.640000", "085401.579000", "085401.582000", "085401.585000", "085401.587000", "085401.590000", "085401.601000", "085401.604000", "085401.606000", "085401.609000", "085401.611000", "085401.614000", "085401.616000", "085401.619000", "085401.621000", "085401.624000", "085401.626000", "085401.628000", "085401.631000", "085401.633000", "085401.636000", "085441.579000", "085441.582000", "085441.584000", "085441.587000", "085441.589000", "085441.592000", "085441.594000", "085441.597000", "085441.599000", "085441.602000", "085441.604000", "085441.607000", "085441.609000", "085441.612000", "085441.614000", "085441.617000", "085441.619000", "085441.621000", "085441.624000", "085441.626000", "085521.579000", "085521.582000", "085521.584000", "085521.587000", "085521.589000", "085521.592000", "085521.594000", "085521.596000", "085521.599000", "085521.602000", "085521.604000", "085521.606000", "085521.609000", "085521.611000", "085521.614000", "085521.616000", "085521.618000", "085521.621000", "085521.623000", "085521.626000", "085601.579000", "085601.582000", "085601.585000", "085601.587000", "085601.589000", "085601.592000", "085601.602000", "085601.605000", "085601.607000", "085601.610000", "085601.619000", "085601.621000", "085601.624000", "085601.626000", "085601.628000", "085601.631000", "085601.634000", "085601.636000", "085601.639000", "085601.641000", "085641.579000", "085641.582000", "085641.585000", "085641.587000", "085641.590000", "085641.592000", "085641.594000", "085641.597000", "085641.599000", "085641.602000", "085641.604000", "085641.607000", "085641.609000", "085641.612000", "085641.614000", "085641.617000", "085641.619000", "085641.622000", "085641.624000", "085641.627000", "085721.581000", "085721.585000", "085721.587000", "085721.590000", "085721.592000", "085721.595000", "085721.597000", "085721.600000", "085721.603000", "085721.605000", "085721.608000", "085721.611000", "085721.613000", "085721.616000", "085721.618000", "085721.621000", "085721.623000", "085721.626000", "085721.629000", "085721.631000", "085739.287000", "085739.290000", "085739.292000", "085739.294000", "085739.297000", "085739.300000", "085739.302000", "085739.305000", "085739.307000"],
      "InstanceNumber": [1, 2, 3, 4, 5, 6, 7, 8, 9, 10, 11, 12, 13, 14, 15, 16, 17, 18, 19, 20, 21, 22, 23, 24, 25, 26, 27, 28, 29, 30, 31, 32, 33, 34, 35, 36, 37, 38, 39, 40, 41, 42, 43, 44, 45, 46, 47, 48, 49, 50, 51, 52, 53, 54, 55, 56, 57, 58, 59, 60, 61, 62, 63, 64, 65, 66, 67, 68, 69, 70, 71, 72, 73, 74, 75, 76, 77, 78, 79, 80, 81, 82, 83, 84, 85, 86, 87, 88, 89, 90, 91, 92, 93, 94, 95, 96, 97, 98, 99, 100, 101, 102, 103, 104, 105, 106, 107, 108, 109, 110, 111, 112, 113, 114, 115, 116, 117, 118, 119, 120, 121, 122, 123, 124, 125, 126, 127, 128, 129, 130, 131, 132, 133, 134, 135, 136, 137, 138, 139, 140, 141, 142, 143, 144, 145, 146, 147, 148, 149, 150, 151, 152, 153, 154, 155, 156, 157, 158, 159, 160, 161, 162, 163, 164, 165, 166, 167, 168, 169, 170, 171, 172, 173, 174, 175, 176, 177, 178, 179, 180, 181, 182, 183, 184, 185, 186, 187, 188, 189, 190, 191, 192, 193, 194, 195, 196, 197, 198, 199, 200, 201, 202, 203, 204, 205, 206, 207, 208, 209, 210, 211, 212, 213, 214, 215, 216, 217, 218, 219, 220, 221, 222, 223, 224, 225, 226, 227, 228, 229, 230, 231, 232, 233, 234, 235, 236, 237],
      "LargestImagePixelValue": [1439, 1726, 1770, 1536, 1515, 1503, 1431, 1427, 1506, 1762, 1796, 1515, 1467, 1574, 1509, 1717, 1452, 1473, 1432, 1588, 1497, 1566, 1437, 1562, 1658, 1430, 1415, 1452, 1477, 1605, 1434, 1525, 1596, 1541, 1433, 1692, 1471, 1409, 1459, 1545, 1757, 1587, 1519, 1523, 1414, 1615, 1434, 1487, 1537, 1599, 1531, 1467, 1525, 1554, 1533, 1521, 1565, 1468, 1418, 1557, 1563, 1637, 1437, 1472, 1455, 1884, 1519, 1689, 1455, 1595, 1431, 1512, 1559, 1479, 1734, 1479, 1537, 1441, 1461, 1577, 1443, 1756, 1607, 1539, 1453, 1567, 1674, 1527, 1524, 1500, 1520, 1528, 1480, 1477, 1551, 1516, 1478, 1468, 1609, 1635, 1523, 1814, 1722, 1532, 1618, 1516, 1486, 1512, 1519, 1490, 1766, 1467, 1576, 1540, 1551, 1474, 1639, 1803, 1477, 1470, 1528, 1662, 1522, 1507, 1517, 1507, 1800, 1472, 1598, 1480, 1618, 1575, 1712, 1525, 1515, 1525, 1476, 1474, 1662, 1711, 1789, 1560, 1492, 1575, 1679, 1483, 1493, 1474, 1549, 1830, 1502, 1508, 1517, 1767, 1616, 1477, 1437, 1614, 1489, 1743, 1670, 1509, 1542, 1684, 1659, 1490, 1490, 1512, 1496, 1485, 1706, 1834, 1631, 1560, 1477, 1623, 1653, 1470, 1493, 1506, 1726, 1509, 1475, 1470, 1689, 1777, 1564, 1507, 1520, 1730, 1525, 1493, 1615, 1480, 1487, 1721, 1546, 1504, 1571, 1499, 1481, 1561, 1504, 1565, 1520, 1546, 1684, 1629, 1484, 1520, 1508, 1560, 1589, 1528, 1621, 1618, 1472, 1559, 1550, 1456, 1664, 1696, 1474, 1535, 1594, 1489, 1681, 1655, 1500, 1488, 1615, 1568, 1492, 1617, 1562, 1548, 1479],
      "WindowCenter": [651.0, 652.0, 651.0, 650.0, 650.0, 651.0, 652.0, 653.0, 653.0, 653.0, 653.0, 651.0, 651.0, 652.0, 651.0, 651.0, 650.0, 651.0, 653.0, 654.0, 653.0, 652.0, 651.0, 653.0, 653.0, 652.0, 652.0, 653.0, 652.0, 653.0, 652.0, 652.0, 653.0, 652.0, 652.0, 653.0, 651.0, 651.0, 651.0, 652.0, 653.0, 652.0, 652.0, 652.0, 652.0, 653.0, 652.0, 653.0, 652.0, 652.0, 651.0, 650.0, 650.0, 651.0, 652.0, 652.0, 652.0, 652.0, 652.0, 653.0, 652.0, 652.0, 651.0, 653.0, 652.0, 653.0, 651.0, 652.0, 650.0, 651.0, 650.0, 651.0, 652.0, 651.0, 652.0, 650.0, 650.0, 651.0, 652.0, 652.0, 651.0, 652.0, 651.0, 651.0, 651.0, 651.0, 652.0, 650.0, 651.0, 652.0, 651.0, 650.0, 649.0, 650.0, 651.0, 651.0, 652.0, 651.0, 652.0, 653.0, 651.0, 652.0, 651.0, 651.0, 651.0, 651.0, 651.0, 652.0, 651.0, 651.0, 651.0, 650.0, 651.0, 651.0, 651.0, 651.0, 651.0, 652.0, 649.0, 649.0, 651.0, 651.0, 651.0, 651.0, 651.0, 651.0, 652.0, 650.0, 651.0, 650.0, 652.0, 651.0, 650.0, 650.0, 650.0, 650.0, 651.0, 652.0, 652.0, 652.0, 652.0, 650.0, 649.0, 650.0, 650.0, 649.0, 649.0, 650.0, 651.0, 653.0, 650.0, 650.0, 650.0, 651.0, 650.0, 650.0, 651.0, 653.0, 651.0, 652.0, 651.0, 650.0, 650.0, 650.0, 650.0, 649.0, 650.0, 650.0, 651.0, 651.0, 652.0, 652.0, 650.0, 650.0, 650.0, 650.0, 649.0, 649.0, 650.0, 651.0, 652.0, 650.0, 650.0, 650.0, 651.0, 651.0, 650.0, 650.0, 650.0, 651.0, 649.0, 649.0, 650.0, 649.0, 650.0, 651.0, 650.0, 650.0, 651.0, 650.0, 650.0, 650.0, 650.0, 651.0, 651.0, 650.0, 650.0, 650.0, 649.0, 650.0, 650.0, 651.0, 650.0, 650.0, 650.0, 650.0, 649.0, 649.0, 650.0, 650.0, 650.0, 650.0, 650.0, 650.0, 650.0, 649.0, 650.0, 650.0, 649.0, 649.0, 650.0, 649.0, 649.0, 651.0, 649.0, 649.0, 649.0],
      "WindowWidth": [1414.0, 1416.0, 1412.0, 1410.0, 1410.0, 1412.0, 1416.0, 1419.0, 1419.0, 1419.0, 1419.0, 1414.0, 1413.0, 1416.0, 1412.0, 1413.0, 1409.0, 1414.0, 1418.0, 1422.0, 1419.0, 1417.0, 1414.0, 1419.0, 1420.0, 1416.0, 1415.0, 1418.0, 1417.0, 1418.0, 1416.0, 1418.0, 1418.0, 1416.0, 1416.0, 1417.0, 1414.0, 1413.0, 1415.0, 1417.0, 1418.0, 1415.0, 1415.0, 1415.0, 1415.0, 1418.0, 1417.0, 1418.0, 1416.0, 1415.0, 1414.0, 1411.0, 1412.0, 1414.0, 1416.0, 1417.0, 1417.0, 1415.0, 1416.0, 1418.0, 1416.0, 1415.0, 1412.0, 1418.0, 1417.0, 1420.0, 1414.0, 1414.0, 1410.0, 1413.0, 1411.0, 1412.0, 1415.0, 1413.0, 1416.0, 1411.0, 1411.0, 1412.0, 1415.0, 1415.0, 1413.0, 1416.0, 1413.0, 1412.0, 1412.0, 1414.0, 1415.0, 1411.0, 1412.0, 1415.0, 1413.0, 1411.0, 1409.0, 1410.0, 1413.0, 1414.0, 1415.0, 1415.0, 1416.0, 1418.0, 1414.0, 1415.0, 1414.0, 1412.0, 1413.0, 1412.0, 1412.0, 1414.0, 1412.0, 1413.0, 1414.0, 1411.0, 1413.0, 1413.0, 1414.0, 1414.0, 1414.0, 1414.0, 1408.0, 1408.0, 1412.0, 1414.0, 1413.0, 1413.0, 1413.0, 1413.0, 1414.0, 1410.0, 1411.0, 1411.0, 1415.0, 1412.0, 1410.0, 1409.0, 1411.0, 1411.0, 1412.0, 1415.0, 1416.0, 1415.0, 1414.0, 1410.0, 1408.0, 1410.0, 1410.0, 1406.0, 1408.0, 1410.0, 1414.0, 1417.0, 1411.0, 1410.0, 1410.0, 1414.0, 1410.0, 1410.0, 1414.0, 1418.0, 1413.0, 1414.0, 1413.0, 1411.0, 1410.0, 1410.0, 1410.0, 1408.0, 1410.0, 1411.0, 1413.0, 1414.0, 1416.0, 1415.0, 1411.0, 1411.0, 1411.0, 1410.0, 1408.0, 1408.0, 1411.0, 1413.0, 1414.0, 1411.0, 1411.0, 1411.0, 1414.0, 1412.0, 1410.0, 1410.0, 1411.0, 1414.0, 1408.0, 1407.0, 1411.0, 1408.0, 1410.0, 1412.0, 1409.0, 1411.0, 1412.0, 1410.0, 1410.0, 1410.0, 1409.0, 1411.0, 1411.0, 1411.0, 1411.0, 1410.0, 1408.0, 1409.0, 1410.0, 1411.0, 1411.0, 1411.0, 1411.0, 1409.0, 1406.0, 1408.0, 1411.0, 1410.0, 1410.0, 1409.0, 1409.0, 1410.0, 1410.0, 1408.0, 1409.0, 1408.0, 1407.0, 1407.0, 1409.0, 1407.0, 1408.0, 1412.0, 1408.0, 1408.0, 1407.0]
    },
    "slices": {}
  }
}