{
  "AcquisitionMatrixPE": 70,
  "AcquisitionNumber": 1,
  "AcquisitionTime": "09:16:52.465000",
  "BandwidthPerPixelPhaseEncode": 38.873,
  "BaseResolution": 70,
  "BodyPartExamined": "HEAD",
  "ConsistencyInfo": "N4_VE11B_LATEST_20150530",
  "ConversionSoftware": "dcm2niix",
  "ConversionSoftwareVersion": "v1.0.20190410  GCC6.3.0",
  "DerivedVendorReportedEchoSpacing": 0.000489996,
  "DeviceSerialNumber": "66088",
  "DwellTime": 2.9e-06,
  "EchoTime": 0.03,
  "EchoTrainLength": 53,
  "EffectiveEchoSpacing": 0.000367497,
  "FlipAngle": 90,
  "ImageOrientationPatientDICOM": [0.996966, -0.0365506, 0.068719, 0.0592308, 0.929059, -0.365159],
  "ImageType": [
    "ORIGINAL",
    "PRIMARY",
    "M",
    "ND",
    "NORM",
    "MOSAIC"
],
  "ImagingFrequency": 123.191,
  "InPlanePhaseEncodingDirectionDICOM": "COL",
  "InstitutionAddress": "Street_StreetNo_City_District_IR_ZIP",
  "InstitutionName": "NBML",
  "InstitutionalDepartmentName": "Department",
  "MRAcquisitionType": "2D",
  "MagneticFieldStrength": 3,
  "Manufacturer": "Siemens",
  "ManufacturersModelName": "Prisma",
  "Modality": "MR",
  "ParallelReductionFactorInPlane": 2,
  "PartialFourier": 1,
  "PatientPosition": "HFS",
  "PercentPhaseFOV": 100,
  "PhaseEncodingDirection": "j-",
  "PhaseEncodingSteps": 105,
  "PhaseOversampling": 0.5,
  "PhaseResolution": 1,
  "PixelBandwidth": 2465,
  "ProcedureStepDescription": "NBML_Project_P-96169-Ebrahiminiya",
  "ProtocolName": "ep2d_p2_Task_3.5_measurment:237",
  "PulseSequenceDetails": "%SiemensSeq%_ep2d_pace",
  "ReceiveCoilActiveElements": "HC1-7;NC1",
  "ReceiveCoilName": "HeadNeck_64",
  "ReconMatrixPE": 70,
  "RefLinesPE": 24,
  "RepetitionTime": 2,
  "SAR": 0.0885816,
  "ScanOptions": "FS",
  "ScanningSequence": "EP",
  "SequenceName": "_epfid2d1_70",
  "SequenceVariant": "SK_OSP",
  "SeriesDescription": "ep2d_p2_Task_3.5_measurment:237",
  "SeriesNumber": 6,
  "ShimSetting": [2597, -4477, -3269, 463, -70, 2, -132, -8],
  "SliceThickness": 3.5,
  "SliceTiming": [0.99, 0, 1.0475, 0.0575, 1.1075, 0.1175, 1.165, 0.175, 1.2225, 0.2325, 1.28, 0.29, 1.34, 0.35, 1.3975, 0.4075, 1.455, 0.465, 1.515, 0.525, 1.5725, 0.5825, 1.63, 0.64, 1.6875, 0.7, 1.7475, 0.7575, 1.805, 0.815, 1.8625, 0.8725, 1.9225, 0.9325],
  "SoftwareVersions": "syngo_MR_E11",
  "SpacingBetweenSlices": 3.85,
  "StationName": "AWP66088",
  "TaskName": "categorySelectivity",
  "TotalReadoutTime": 0.0253573,
  "TxRefAmp": 226.646,
  "dcmmeta_affine": [
    [-3.532109022140503, 0.2098461538553238, 0.1944141387939453, 125.29190063476562],
    [0.12949369847774506, 3.291522741317749, -1.4172691106796265, -78.08816528320312],
    [0.24346157908439636, 1.2937074899673462, 3.5743601322174072, -103.57437133789062],
    [0.0, 0.0, 0.0, 1.0]
],
  "dcmmeta_reorient_transform": [
    [0.0, -1.0, 0.0, 69.0],
    [1.0, 0.0, 0.0, 0.0],
    [0.0, 0.0, 1.0, 0.0],
    [0.0, 0.0, 0.0, 1.0]
],
  "dcmmeta_shape": [70, 70, 34, 236],
  "dcmmeta_slice_dim": 2,
  "dcmmeta_version": 0.6,
  "global": {
    "const": {
      "AcquisitionMatrix": [70, 0, 0, 70],
      "AngioFlag": "N",
      "BitsAllocated": 16,
      "BitsStored": 12,
      "BodyPartExamined": "HEAD",
      "Columns": 420,
      "EchoNumbers": 1,
      "EchoTime": 30.0,
      "EchoTrainLength": 53,
      "FlipAngle": 90.0,
      "HighBit": 11,
      "ImageOrientationPatient": [0.99696627351701, -0.0365506387732, 0.06871899500772, 0.05923076907969, 0.92905885414834, -0.3651593645558],
      "ImagePositionPatient": [-794.61345836617, -702.3820057128, 169.48447126527],
      "ImageType": [
        "ORIGINAL",
        "PRIMARY",
        "M",
        "ND",
        "NORM",
        "MOSAIC"
],
      "ImagedNucleus": "1H",
      "ImagingFrequency": 123.191179,
      "InPlanePhaseEncodingDirection": "COL",
      "MRAcquisitionType": "2D",
      "MagneticFieldStrength": 3.0,
      "Manufacturer": "SIEMENS",
      "ManufacturerModelName": "Prisma",
      "Modality": "MR",
      "NumberOfAverages": 1.0,
      "NumberOfPhaseEncodingSteps": 105,
      "PercentPhaseFieldOfView": 100.0,
      "PercentSampling": 100.0,
      "PerformedProcedureStepStartTime": "083033.904000",
      "PhotometricInterpretation": "MONOCHROME2",
      "PixelBandwidth": 2465.0,
      "PixelRepresentation": 0,
      "PixelSpacing": [3.542857170105, 3.542857170105],
      "ProtocolName": "ep2d_p2_Task_3.5_measurment:237",
      "RepetitionTime": 2000.0,
      "Rows": 420,
      "SAR": 0.0885815808737,
      "SamplesPerPixel": 1,
      "ScanOptions": "FS",
      "ScanningSequence": "EP",
      "SequenceName": "*epfid2d1_70",
      "SequenceVariant": [
        "SK",
        "OSP"
],
      "SeriesDescription": "ep2d_p2_Task_3.5_measurment:237",
      "SeriesNumber": 6,
      "SeriesTime": "091741.580000",
      "SliceLocation": -61.086146581105,
      "SliceThickness": 3.5,
      "SmallestImagePixelValue": 0,
      "SoftwareVersions": "syngo MR E11",
      "SpacingBetweenSlices": 3.8499998551093,
      "SpecificCharacterSet": "ISO_IR 100",
      "StudyID": "1",
      "StudyTime": "083033.767000",
      "TransmitCoilName": "Body",
      "VariableFlipAngleFlag": "N",
      "WindowCenterWidthExplanation": "Algo1",
      "dBdt": 0.0},
    "slices": {}
  },
  "time": {
    "samples": {
      "AcquisitionNumber": [1, 2, 3, 4, 5, 6, 7, 8, 9, 10, 11, 12, 13, 14, 15, 16, 17, 18, 19, 20, 21, 22, 23, 24, 25, 26, 27, 28, 29, 30, 31, 32, 33, 34, 35, 36, 37, 38, 39, 40, 41, 42, 43, 44, 45, 46, 47, 48, 49, 50, 51, 52, 53, 54, 55, 56, 57, 58, 59, 60, 61, 62, 63, 64, 65, 66, 67, 68, 69, 70, 71, 72, 73, 74, 75, 76, 77, 78, 79, 80, 81, 82, 83, 85, 86, 87, 88, 89, 90, 91, 92, 93, 94, 95, 96, 97, 98, 99, 100, 101, 102, 103, 104, 105, 106, 107, 108, 109, 110, 111, 112, 113, 114, 115, 116, 117, 118, 119, 120, 121, 122, 123, 124, 125, 126, 127, 128, 129, 130, 131, 132, 133, 134, 135, 136, 137, 138, 139, 140, 141, 142, 143, 144, 145, 146, 147, 148, 149, 150, 151, 152, 153, 154, 155, 156, 157, 158, 159, 160, 161, 162, 163, 164, 165, 166, 167, 168, 169, 170, 171, 172, 173, 174, 175, 176, 177, 178, 179, 180, 181, 182, 183, 184, 185, 186, 187, 188, 189, 190, 191, 192, 193, 194, 195, 196, 197, 198, 199, 200, 201, 202, 203, 204, 205, 206, 207, 208, 209, 210, 211, 212, 213, 214, 215, 216, 217, 218, 219, 220, 221, 222, 223, 224, 225, 226, 227, 228, 229, 230, 231, 232, 233, 234, 235, 236, 237],
      "AcquisitionTime": ["091652.465000", "091654.465000", "091656.465000", "091658.465000", "091700.465000", "091702.465000", "091704.465000", "091706.465000", "091708.465000", "091710.465000", "091712.465000", "091714.465000", "091716.465000", "091718.465000", "091720.465000", "091722.465000", "091724.465000", "091726.465000", "091728.465000", "091730.465000", "091732.465000", "091734.465000", "091736.465000", "091738.465000", "091740.465000", "091742.465000", "091744.465000", "091746.465000", "091748.465000", "091750.465000", "091752.465000", "091754.465000", "091756.465000", "091758.465000", "091800.465000", "091802.465000", "091804.465000", "091806.465000", "091808.465000", "091810.465000", "091812.465000", "091814.465000", "091816.465000", "091818.465000", "091820.465000", "091822.465000", "091824.465000", "091826.465000", "091828.465000", "091830.465000", "091832.465000", "091834.465000", "091836.465000", "091838.465000", "091840.465000", "091842.465000", "091844.465000", "091846.465000", "091848.465000", "091850.465000", "091852.465000", "091854.465000", "091856.465000", "091858.465000", "091900.465000", "091902.465000", "091904.465000", "091906.465000", "091908.465000", "091910.465000", "091912.465000", "091914.465000", "091916.465000", "091918.465000", "091920.465000", "091922.465000", "091924.465000", "091926.465000", "091928.465000", "091930.465000", "091932.465000", "091934.465000", "091936.465000", "091940.465000", "091942.465000", "091944.465000", "091946.465000", "091948.465000", "091950.465000", "091952.465000", "091954.465000", "091956.465000", "091958.465000", "092000.465000", "092002.465000", "092004.465000", "092006.465000", "092008.465000", "092010.465000", "092012.465000", "092014.465000", "092016.465000", "092018.465000", "092020.465000", "092022.465000", "092024.465000", "092026.465000", "092028.465000", "092030.465000", "092032.465000", "092034.465000", "092036.465000", "092038.465000", "092040.465000", "092042.465000", "092044.465000", "092046.465000", "092048.465000", "092050.465000", "092052.465000", "092054.465000", "092056.465000", "092058.465000", "092100.465000", "092102.465000", "092104.465000", "092106.465000", "092108.465000", "092110.465000", "092112.465000", "092114.465000", "092116.465000", "092118.465000", "092120.465000", "092122.465000", "092124.465000", "092126.465000", "092128.465000", "092130.465000", "092132.465000", "092134.465000", "092136.465000", "092138.465000", "092140.465000", "092142.465000", "092144.465000", "092146.465000", "092148.465000", "092150.465000", "092152.465000", "092154.465000", "092156.465000", "092158.465000", "092200.465000", "092202.465000", "092204.465000", "092206.465000", "092208.465000", "092210.465000", "092212.465000", "092214.465000", "092216.465000", "092218.465000", "092220.465000", "092222.465000", "092224.465000", "092226.465000", "092228.465000", "092230.465000", "092232.465000", "092234.465000", "092236.465000", "092238.465000", "092240.465000", "092242.465000", "092244.465000", "092246.465000", "092248.465000", "092250.465000", "092252.465000", "092254.465000", "092256.465000", "092258.465000", "092300.465000", "092302.465000", "092304.465000", "092306.465000", "092308.465000", "092310.465000", "092312.465000", "092314.465000", "092316.465000", "092318.465000", "092320.465000", "092322.465000", "092324.465000", "092326.465000", "092328.465000", "092330.465000", "092332.465000", "092334.465000", "092336.465000", "092338.465000", "092340.465000", "092342.465000", "092344.465000", "092346.465000", "092348.465000", "092350.465000", "092352.465000", "092354.465000", "092356.465000", "092358.465000", "092400.465000", "092402.465000", "092404.465000", "092406.465000", "092408.465000", "092410.465000", "092412.465000", "092414.465000", "092416.465000", "092418.465000", "092420.465000", "092422.465000", "092424.465000", "092426.465000", "092428.465000", "092430.465000", "092432.465000", "092434.465000", "092436.465000", "092438.465000", "092440.465000", "092442.465000", "092444.465000"],
      "ContentTime": ["091741.583000", "091741.586000", "091741.589000", "091741.591000", "091741.594000", "091741.596000", "091741.599000", "091741.601000", "091741.604000", "091741.606000", "091741.609000", "091741.611000", "091741.613000", "091741.616000", "091741.618000", "091741.621000", "091741.623000", "091741.625000", "091741.631000", "091741.634000", "091741.636000", "091741.639000", "091741.641000", "091741.644000", "091821.579000", "091821.581000", "091821.584000", "091821.587000", "091821.589000", "091821.592000", "091821.595000", "091821.597000", "091821.600000", "091821.602000", "091821.605000", "091821.608000", "091821.610000", "091821.613000", "091821.615000", "091821.618000", "091821.621000", "091821.629000", "091821.632000", "091821.634000", "091901.578000", "091901.581000", "091901.584000", "091901.586000", "091901.588000", "091901.591000", "091901.593000", "091901.596000", "091901.598000", "091901.601000", "091901.603000", "091901.605000", "091901.608000", "091901.610000", "091901.613000", "091901.615000", "091901.618000", "091901.620000", "091901.623000", "091901.625000", "091941.578000", "091941.581000", "091941.584000", "091941.586000", "091941.589000", "091941.591000", "091941.593000", "091941.601000", "091941.603000", "091941.606000", "091941.608000", "091941.611000", "091941.613000", "091941.616000", "091941.618000", "091941.621000", "091941.623000", "091941.626000", "091941.628000", "092021.580000", "092021.584000", "092021.586000", "092021.589000", "092021.592000", "092021.594000", "092021.606000", "092021.608000", "092021.611000", "092021.613000", "092021.616000", "092021.618000", "092021.621000", "092021.623000", "092021.626000", "092021.628000", "092021.631000", "092021.633000", "092021.636000", "092021.638000", "092101.578000", "092101.581000", "092101.584000", "092101.586000", "092101.589000", "092101.591000", "092101.594000", "092101.596000", "092101.599000", "092101.601000", "092101.604000", "092101.606000", "092101.609000", "092101.611000", "092101.614000", "092101.616000", "092101.619000", "092101.621000", "092101.624000", "092101.626000", "092141.579000", "092141.582000", "092141.584000", "092141.587000", "092141.589000", "092141.592000", "092141.594000", "092141.596000", "092141.599000", "092141.601000", "092141.604000", "092141.606000", "092141.609000", "092141.611000", "092141.614000", "092141.616000", "092141.619000", "092141.621000", "092141.624000", "092141.626000", "092221.579000", "092221.582000", "092221.585000", "092221.587000", "092221.590000", "092221.593000", "092221.595000", "092221.598000", "092221.601000", "092221.603000", "092221.606000", "092221.608000", "092221.611000", "092221.614000", "092221.616000", "092221.619000", "092221.622000", "092221.624000", "092221.627000", "092221.629000", "092301.579000", "092301.581000", "092301.584000", "092301.586000", "092301.589000", "092301.591000", "092301.594000", "092301.596000", "092301.599000", "092301.601000", "092301.604000", "092301.606000", "092301.609000", "092301.612000", "092301.614000", "092301.616000", "092301.619000", "092301.621000", "092301.624000", "092301.626000", "092341.579000", "092341.582000", "092341.585000", "092341.587000", "092341.590000", "092341.592000", "092341.595000", "092341.597000", "092341.599000", "092341.602000", "092341.604000", "092341.607000", "092341.615000", "092341.617000", "092341.620000", "092341.622000", "092341.625000", "092341.627000", "092341.630000", "092341.632000", "092421.579000", "092421.582000", "092421.584000", "092421.587000", "092421.589000", "092421.592000", "092421.594000", "092421.597000", "092421.599000", "092421.602000", "092421.604000", "092421.607000", "092421.610000", "092421.612000", "092421.615000", "092421.617000", "092421.620000", "092421.622000", "092421.625000", "092421.627000", "092446.111000", "092446.114000", "092446.119000", "092446.123000", "092446.126000", "092446.129000", "092446.133000", "092446.135000", "092446.138000", "092446.141000", "092446.144000", "092446.147000", "092446.150000"],
      "InstanceCreationTime": ["091741.583000", "091741.586000", "091741.589000", "091741.591000", "091741.594000", "091741.596000", "091741.599000", "091741.601000", "091741.604000", "091741.606000", "091741.609000", "091741.611000", "091741.613000", "091741.616000", "091741.618000", "091741.621000", "091741.623000", "091741.625000", "091741.631000", "091741.634000", "091741.636000", "091741.639000", "091741.641000", "091741.644000", "091821.579000", "091821.581000", "091821.584000", "091821.587000", "091821.589000", "091821.592000", "091821.595000", "091821.597000", "091821.600000", "091821.602000", "091821.605000", "091821.608000", "091821.610000", "091821.613000", "091821.615000", "091821.618000", "091821.621000", "091821.629000", "091821.632000", "091821.634000", "091901.578000", "091901.581000", "091901.584000", "091901.586000", "091901.588000", "091901.591000", "091901.593000", "091901.596000", "091901.598000", "091901.601000", "091901.603000", "091901.605000", "091901.608000", "091901.610000", "091901.613000", "091901.615000", "091901.618000", "091901.620000", "091901.623000", "091901.625000", "091941.578000", "091941.581000", "091941.584000", "091941.586000", "091941.589000", "091941.591000", "091941.593000", "091941.601000", "091941.603000", "091941.606000", "091941.608000", "091941.611000", "091941.613000", "091941.616000", "091941.618000", "091941.621000", "091941.623000", "091941.626000", "091941.628000", "092021.580000", "092021.584000", "092021.586000", "092021.589000", "092021.592000", "092021.594000", "092021.606000", "092021.608000", "092021.611000", "092021.613000", "092021.616000", "092021.618000", "092021.621000", "092021.623000", "092021.626000", "092021.628000", "092021.631000", "092021.633000", "092021.636000", "092021.638000", "092101.578000", "092101.581000", "092101.584000", "092101.586000", "092101.589000", "092101.591000", "092101.594000", "092101.596000", "092101.599000", "092101.601000", "092101.604000", "092101.606000", "092101.609000", "092101.611000", "092101.614000", "092101.616000", "092101.619000", "092101.621000", "092101.624000", "092101.626000", "092141.579000", "092141.582000", "092141.584000", "092141.587000", "092141.589000", "092141.592000", "092141.594000", "092141.596000", "092141.599000", "092141.601000", "092141.604000", "092141.606000", "092141.609000", "092141.611000", "092141.614000", "092141.616000", "092141.619000", "092141.621000", "092141.624000", "092141.626000", "092221.579000", "092221.582000", "092221.585000", "092221.587000", "092221.590000", "092221.593000", "092221.595000", "092221.598000", "092221.601000", "092221.603000", "092221.606000", "092221.608000", "092221.611000", "092221.614000", "092221.616000", "092221.619000", "092221.622000", "092221.624000", "092221.627000", "092221.629000", "092301.579000", "092301.581000", "092301.584000", "092301.586000", "092301.589000", "092301.591000", "092301.594000", "092301.596000", "092301.599000", "092301.601000", "092301.604000", "092301.606000", "092301.609000", "092301.612000", "092301.614000", "092301.616000", "092301.619000", "092301.621000", "092301.624000", "092301.626000", "092341.579000", "092341.582000", "092341.585000", "092341.587000", "092341.590000", "092341.592000", "092341.595000", "092341.597000", "092341.599000", "092341.602000", "092341.604000", "092341.607000", "092341.615000", "092341.617000", "092341.620000", "092341.622000", "092341.625000", "092341.627000", "092341.630000", "092341.632000", "092421.579000", "092421.582000", "092421.584000", "092421.587000", "092421.589000", "092421.592000", "092421.594000", "092421.597000", "092421.599000", "092421.602000", "092421.604000", "092421.607000", "092421.610000", "092421.612000", "092421.615000", "092421.617000", "092421.620000", "092421.622000", "092421.625000", "092421.627000", "092446.111000", "092446.114000", "092446.119000", "092446.123000", "092446.126000", "092446.129000", "092446.133000", "092446.135000", "092446.138000", "092446.141000", "092446.144000", "092446.147000", "092446.150000"],
      "InstanceNumber": [1, 2, 3, 4, 5, 6, 7, 8, 9, 10, 11, 12, 13, 14, 15, 16, 17, 18, 19, 20, 21, 22, 23, 24, 25, 26, 27, 28, 29, 30, 31, 32, 33, 34, 35, 36, 37, 38, 39, 40, 41, 42, 43, 44, 45, 46, 47, 48, 49, 50, 51, 52, 53, 54, 55, 56, 57, 58, 59, 60, 61, 62, 63, 64, 65, 66, 67, 68, 69, 70, 71, 72, 73, 74, 75, 76, 77, 78, 79, 80, 81, 82, 83, 85, 86, 87, 88, 89, 90, 91, 92, 93, 94, 95, 96, 97, 98, 99, 100, 101, 102, 103, 104, 105, 106, 107, 108, 109, 110, 111, 112, 113, 114, 115, 116, 117, 118, 119, 120, 121, 122, 123, 124, 125, 126, 127, 128, 129, 130, 131, 132, 133, 134, 135, 136, 137, 138, 139, 140, 141, 142, 143, 144, 145, 146, 147, 148, 149, 150, 151, 152, 153, 154, 155, 156, 157, 158, 159, 160, 161, 162, 163, 164, 165, 166, 167, 168, 169, 170, 171, 172, 173, 174, 175, 176, 177, 178, 179, 180, 181, 182, 183, 184, 185, 186, 187, 188, 189, 190, 191, 192, 193, 194, 195, 196, 197, 198, 199, 200, 201, 202, 203, 204, 205, 206, 207, 208, 209, 210, 211, 212, 213, 214, 215, 216, 217, 218, 219, 220, 221, 222, 223, 224, 225, 226, 227, 228, 229, 230, 231, 232, 233, 234, 235, 236, 237],
      "LargestImagePixelValue": [1482, 1519, 1525, 1785, 1413, 1597, 1513, 1653, 1474, 1881, 1538, 1603, 1541, 1432, 1744, 1421, 1809, 1412, 1608, 1627, 1672, 1560, 1520, 1736, 1462, 1513, 1750, 1599, 1498, 1825, 1581, 2039, 1406, 1739, 1424, 1914, 1419, 1473, 1801, 1499, 1679, 1577, 1664, 1660, 1789, 1439, 1732, 1430, 1500, 1679, 1589, 1905, 1425, 1481, 1757, 1566, 2035, 1560, 1496, 1597, 1469, 1548, 1584, 1844, 1618, 1700, 1555, 1466, 1993, 1434, 1478, 1977, 1571, 1434, 1542, 1565, 1738, 1438, 1549, 1900, 1473, 1573, 1704, 1510, 1862, 1636, 1525, 1478, 1743, 1765, 1490, 1587, 1741, 1638, 1542, 1530, 1472, 1883, 1563, 1457, 1468, 1525, 1725, 1589, 1595, 1653, 1616, 1578, 1427, 1554, 1927, 1400, 1563, 1692, 1526, 1839, 1440, 1460, 1701, 1487, 1768, 1524, 1533, 1727, 1441, 1657, 1761, 1548, 1497, 1625, 1542, 1871, 1493, 1659, 1399, 1758, 1567, 1641, 1743, 1458, 1562, 1538, 1567, 1643, 1611, 1524, 1726, 1777, 1404, 1436, 1539, 1634, 1689, 1566, 1493, 1573, 1534, 1651, 1593, 1440, 1535, 1655, 1425, 1581, 1880, 1495, 1432, 1489, 1763, 1568, 1423, 1575, 1845, 1461, 1580, 1509, 1881, 1449, 1488, 1915, 1437, 1523, 1606, 1604, 1439, 1553, 1771, 1612, 1458, 1610, 1529, 1962, 1489, 1456, 1629, 1585, 1467, 1540, 1700, 1425, 1829, 1457, 1414, 1908, 1575, 1669, 1583, 1455, 1537, 1487, 1869, 1564, 1538, 1553, 1516, 1570, 1443, 1657, 1588, 1564, 1631, 1476, 1544, 1521, 1405, 1723, 1446, 1540, 1912, 1656, 1704, 1545, 1584, 1640, 1485, 1530],
      "WindowCenter": [649.0, 648.0, 648.0, 650.0, 648.0, 649.0, 649.0, 650.0, 648.0, 650.0, 648.0, 648.0, 649.0, 649.0, 650.0, 648.0, 649.0, 647.0, 649.0, 649.0, 649.0, 649.0, 649.0, 649.0, 649.0, 649.0, 650.0, 648.0, 648.0, 650.0, 648.0, 649.0, 647.0, 650.0, 648.0, 650.0, 648.0, 649.0, 650.0, 648.0, 649.0, 649.0, 649.0, 649.0, 650.0, 648.0, 650.0, 649.0, 650.0, 651.0, 650.0, 650.0, 648.0, 650.0, 651.0, 649.0, 651.0, 648.0, 648.0, 649.0, 648.0, 649.0, 650.0, 650.0, 649.0, 649.0, 649.0, 649.0, 650.0, 648.0, 649.0, 650.0, 648.0, 647.0, 648.0, 649.0, 649.0, 648.0, 649.0, 650.0, 649.0, 649.0, 650.0, 648.0, 650.0, 648.0, 648.0, 649.0, 650.0, 649.0, 648.0, 648.0, 649.0, 649.0, 648.0, 648.0, 648.0, 649.0, 648.0, 648.0, 648.0, 648.0, 649.0, 649.0, 649.0, 650.0, 649.0, 649.0, 648.0, 649.0, 650.0, 647.0, 649.0, 650.0, 649.0, 650.0, 647.0, 648.0, 650.0, 649.0, 650.0, 648.0, 649.0, 650.0, 648.0, 649.0, 649.0, 648.0, 649.0, 649.0, 649.0, 650.0, 648.0, 650.0, 649.0, 651.0, 649.0, 649.0, 649.0, 648.0, 649.0, 649.0, 649.0, 650.0, 650.0, 649.0, 649.0, 649.0, 648.0, 649.0, 649.0, 649.0, 649.0, 649.0, 649.0, 649.0, 648.0, 648.0, 648.0, 648.0, 648.0, 649.0, 648.0, 649.0, 650.0, 649.0, 648.0, 648.0, 649.0, 648.0, 648.0, 649.0, 650.0, 648.0, 649.0, 649.0, 650.0, 648.0, 648.0, 650.0, 648.0, 648.0, 648.0, 650.0, 649.0, 649.0, 649.0, 649.0, 648.0, 649.0, 648.0, 650.0, 647.0, 648.0, 648.0, 648.0, 648.0, 648.0, 649.0, 647.0, 649.0, 648.0, 648.0, 650.0, 648.0, 648.0, 648.0, 649.0, 649.0, 648.0, 649.0, 648.0, 647.0, 648.0, 648.0, 649.0, 648.0, 649.0, 648.0, 648.0, 648.0, 647.0, 648.0, 648.0, 648.0, 650.0, 649.0, 649.0, 650.0, 649.0, 649.0, 648.0, 648.0, 648.0, 647.0, 648.0],
      "WindowWidth": [1406.0, 1405.0, 1405.0, 1410.0, 1406.0, 1408.0, 1406.0, 1408.0, 1404.0, 1409.0, 1405.0, 1405.0, 1406.0, 1407.0, 1410.0, 1403.0, 1406.0, 1402.0, 1407.0, 1407.0, 1406.0, 1406.0, 1407.0, 1408.0, 1406.0, 1406.0, 1409.0, 1405.0, 1404.0, 1408.0, 1404.0, 1408.0, 1402.0, 1408.0, 1404.0, 1409.0, 1405.0, 1406.0, 1409.0, 1405.0, 1407.0, 1407.0, 1407.0, 1406.0, 1408.0, 1405.0, 1409.0, 1406.0, 1409.0, 1411.0, 1408.0, 1410.0, 1404.0, 1409.0, 1412.0, 1407.0, 1412.0, 1405.0, 1404.0, 1406.0, 1405.0, 1408.0, 1409.0, 1410.0, 1405.0, 1406.0, 1406.0, 1406.0, 1410.0, 1404.0, 1406.0, 1410.0, 1404.0, 1403.0, 1405.0, 1406.0, 1408.0, 1405.0, 1407.0, 1410.0, 1406.0, 1408.0, 1409.0, 1405.0, 1408.0, 1405.0, 1404.0, 1406.0, 1410.0, 1407.0, 1403.0, 1405.0, 1406.0, 1405.0, 1404.0, 1404.0, 1404.0, 1408.0, 1405.0, 1404.0, 1404.0, 1405.0, 1407.0, 1407.0, 1408.0, 1409.0, 1407.0, 1406.0, 1403.0, 1406.0, 1408.0, 1402.0, 1405.0, 1409.0, 1407.0, 1408.0, 1402.0, 1403.0, 1409.0, 1408.0, 1409.0, 1404.0, 1405.0, 1409.0, 1405.0, 1407.0, 1408.0, 1405.0, 1406.0, 1407.0, 1406.0, 1408.0, 1404.0, 1408.0, 1406.0, 1411.0, 1407.0, 1406.0, 1407.0, 1404.0, 1406.0, 1407.0, 1408.0, 1409.0, 1408.0, 1406.0, 1406.0, 1406.0, 1403.0, 1407.0, 1406.0, 1407.0, 1407.0, 1406.0, 1406.0, 1407.0, 1404.0, 1404.0, 1405.0, 1403.0, 1405.0, 1407.0, 1403.0, 1405.0, 1409.0, 1406.0, 1405.0, 1404.0, 1407.0, 1404.0, 1403.0, 1406.0, 1409.0, 1404.0, 1407.0, 1405.0, 1408.0, 1405.0, 1405.0, 1408.0, 1403.0, 1403.0, 1405.0, 1408.0, 1405.0, 1406.0, 1408.0, 1406.0, 1405.0, 1407.0, 1404.0, 1408.0, 1403.0, 1403.0, 1405.0, 1404.0, 1403.0, 1403.0, 1406.0, 1401.0, 1407.0, 1404.0, 1405.0, 1410.0, 1405.0, 1404.0, 1405.0, 1406.0, 1406.0, 1404.0, 1407.0, 1404.0, 1402.0, 1403.0, 1403.0, 1405.0, 1404.0, 1407.0, 1403.0, 1403.0, 1403.0, 1402.0, 1403.0, 1403.0, 1404.0, 1409.0, 1406.0, 1408.0, 1410.0, 1405.0, 1405.0, 1404.0, 1403.0, 1403.0, 1401.0, 1405.0]
    },
    "slices": {}
  }
}