{
  "AcquisitionMatrixPE": 70,
  "AcquisitionNumber": 1,
  "AcquisitionTime": "09:52:25.117500",
  "BandwidthPerPixelPhaseEncode": 38.873,
  "BaseResolution": 70,
  "BodyPartExamined": "HEAD",
  "ConsistencyInfo": "N4_VE11B_LATEST_20150530",
  "ConversionSoftware": "dcm2niix",
  "ConversionSoftwareVersion": "v1.0.20190410  GCC6.3.0",
  "DerivedVendorReportedEchoSpacing": 0.000489996,
  "DeviceSerialNumber": "66088",
  "DwellTime": 2.9e-06,
  "EchoTime": 0.03,
  "EchoTrainLength": 53,
  "EffectiveEchoSpacing": 0.000367497,
  "FlipAngle": 90,
  "ImageOrientationPatientDICOM": [0.996966, -0.0365506, 0.068719, 0.0592308, 0.929059, -0.365159],
  "ImageType": [
    "ORIGINAL",
    "PRIMARY",
    "M",
    "ND",
    "NORM",
    "MOSAIC"
],
  "ImagingFrequency": 123.191,
  "InPlanePhaseEncodingDirectionDICOM": "COL",
  "InstitutionAddress": "Street_StreetNo_City_District_IR_ZIP",
  "InstitutionName": "NBML",
  "InstitutionalDepartmentName": "Department",
  "MRAcquisitionType": "2D",
  "MagneticFieldStrength": 3,
  "Manufacturer": "Siemens",
  "ManufacturersModelName": "Prisma",
  "Modality": "MR",
  "ParallelReductionFactorInPlane": 2,
  "PartialFourier": 1,
  "PatientPosition": "HFS",
  "PercentPhaseFOV": 100,
  "PhaseEncodingDirection": "j-",
  "PhaseEncodingSteps": 105,
  "PhaseOversampling": 0.5,
  "PhaseResolution": 1,
  "PixelBandwidth": 2465,
  "ProcedureStepDescription": "NBML_Project_P-96169-Ebrahiminiya",
  "ProtocolName": "ep2d_p2_Task_3.5_measurment:237",
  "PulseSequenceDetails": "%SiemensSeq%_ep2d_pace",
  "ReceiveCoilActiveElements": "HC1-7;NC1",
  "ReceiveCoilName": "HeadNeck_64",
  "ReconMatrixPE": 70,
  "RefLinesPE": 24,
  "RepetitionTime": 2,
  "SAR": 0.0885816,
  "ScanOptions": "FS",
  "ScanningSequence": "EP",
  "SequenceName": "_epfid2d1_70",
  "SequenceVariant": "SK_OSP",
  "SeriesDescription": "ep2d_p2_Task_3.5_measurment:237",
  "SeriesNumber": 10,
  "ShimSetting": [2597, -4477, -3269, 463, -70, 2, -132, -8],
  "SliceThickness": 3.5,
  "SliceTiming": [0.99, 0, 1.0475, 0.0575, 1.105, 0.115, 1.165, 0.175, 1.2225, 0.2325, 1.28, 0.29, 1.3375, 0.3475, 1.3975, 0.4075, 1.455, 0.465, 1.5125, 0.5225, 1.5725, 0.5825, 1.63, 0.64, 1.6875, 0.6975, 1.745, 0.755, 1.805, 0.815, 1.8625, 0.8725, 1.92, 0.93],
  "SoftwareVersions": "syngo_MR_E11",
  "SpacingBetweenSlices": 3.85,
  "StationName": "AWP66088",
  "TaskName": "categorySelectivity",
  "TotalReadoutTime": 0.0253573,
  "TxRefAmp": 226.646,
  "dcmmeta_affine": [
    [-3.532109022140503, 0.2098461538553238, 0.1944141387939453, 125.29190063476562],
    [0.12949369847774506, 3.291522741317749, -1.4172691106796265, -78.08816528320312],
    [0.24346157908439636, 1.2937074899673462, 3.5743601322174072, -103.57437133789062],
    [0.0, 0.0, 0.0, 1.0]
],
  "dcmmeta_reorient_transform": [
    [0.0, -1.0, 0.0, 69.0],
    [1.0, 0.0, 0.0, 0.0],
    [0.0, 0.0, 1.0, 0.0],
    [0.0, 0.0, 0.0, 1.0]
],
  "dcmmeta_shape": [70, 70, 34, 237],
  "dcmmeta_slice_dim": 2,
  "dcmmeta_version": 0.6,
  "global": {
    "const": {
      "AcquisitionMatrix": [70, 0, 0, 70],
      "AngioFlag": "N",
      "BitsAllocated": 16,
      "BitsStored": 12,
      "BodyPartExamined": "HEAD",
      "Columns": 420,
      "EchoNumbers": 1,
      "EchoTime": 30.0,
      "EchoTrainLength": 53,
      "FlipAngle": 90.0,
      "HighBit": 11,
      "ImageOrientationPatient": [0.99696627351701, -0.0365506387732, 0.06871899500772, 0.05923076907969, 0.92905885414834, -0.3651593645558],
      "ImagePositionPatient": [-794.61345836617, -702.3820057128, 169.48447126527],
      "ImageType": [
        "ORIGINAL",
        "PRIMARY",
        "M",
        "ND",
        "NORM",
        "MOSAIC"
],
      "ImagedNucleus": "1H",
      "ImagingFrequency": 123.191168,
      "InPlanePhaseEncodingDirection": "COL",
      "MRAcquisitionType": "2D",
      "MagneticFieldStrength": 3.0,
      "Manufacturer": "SIEMENS",
      "ManufacturerModelName": "Prisma",
      "Modality": "MR",
      "NumberOfAverages": 1.0,
      "NumberOfPhaseEncodingSteps": 105,
      "PercentPhaseFieldOfView": 100.0,
      "PercentSampling": 100.0,
      "PerformedProcedureStepStartTime": "083033.904000",
      "PhotometricInterpretation": "MONOCHROME2",
      "PixelBandwidth": 2465.0,
      "PixelRepresentation": 0,
      "PixelSpacing": [3.542857170105, 3.542857170105],
      "ProtocolName": "ep2d_p2_Task_3.5_measurment:237",
      "RepetitionTime": 2000.0,
      "Rows": 420,
      "SAR": 0.0885815808737,
      "SamplesPerPixel": 1,
      "ScanOptions": "FS",
      "ScanningSequence": "EP",
      "SequenceName": "*epfid2d1_70",
      "SequenceVariant": [
        "SK",
        "OSP"
],
      "SeriesDescription": "ep2d_p2_Task_3.5_measurment:237",
      "SeriesNumber": 10,
      "SeriesTime": "095324.033000",
      "SliceLocation": -61.086146581105,
      "SliceThickness": 3.5,
      "SmallestImagePixelValue": 0,
      "SoftwareVersions": "syngo MR E11",
      "SpacingBetweenSlices": 3.8499998551093,
      "SpecificCharacterSet": "ISO_IR 100",
      "StudyID": "1",
      "StudyTime": "083033.767000",
      "TransmitCoilName": "Body",
      "VariableFlipAngleFlag": "N",
      "WindowCenterWidthExplanation": "Algo1",
      "dBdt": 0.0},
    "slices": {}
  },
  "time": {
    "samples": {
      "AcquisitionNumber": [1, 2, 3, 4, 5, 6, 7, 8, 9, 10, 11, 12, 13, 14, 15, 16, 17, 18, 19, 20, 21, 22, 23, 24, 25, 26, 27, 28, 29, 30, 31, 32, 33, 34, 35, 36, 37, 38, 39, 40, 41, 42, 43, 44, 45, 46, 47, 48, 49, 50, 51, 52, 53, 54, 55, 56, 57, 58, 59, 60, 61, 62, 63, 64, 65, 66, 67, 68, 69, 70, 71, 72, 73, 74, 75, 76, 77, 78, 79, 80, 81, 82, 83, 84, 85, 86, 87, 88, 89, 90, 91, 92, 93, 94, 95, 96, 97, 98, 99, 100, 101, 102, 103, 104, 105, 106, 107, 108, 109, 110, 111, 112, 113, 114, 115, 116, 117, 118, 119, 120, 121, 122, 123, 124, 125, 126, 127, 128, 129, 130, 131, 132, 133, 134, 135, 136, 137, 138, 139, 140, 141, 142, 143, 144, 145, 146, 147, 148, 149, 150, 151, 152, 153, 154, 155, 156, 157, 158, 159, 160, 161, 162, 163, 164, 165, 166, 167, 168, 169, 170, 171, 172, 173, 174, 175, 176, 177, 178, 179, 180, 181, 182, 183, 184, 185, 186, 187, 188, 189, 190, 191, 192, 193, 194, 195, 196, 197, 198, 199, 200, 201, 202, 203, 204, 205, 206, 207, 208, 209, 210, 211, 212, 213, 214, 215, 216, 217, 218, 219, 220, 221, 222, 223, 224, 225, 226, 227, 228, 229, 230, 231, 232, 233, 234, 235, 236, 237],
      "AcquisitionTime": ["095225.117500", "095227.117500", "095229.117500", "095231.117500", "095233.117500", "095235.117500", "095237.117500", "095239.117500", "095241.117500", "095243.117500", "095245.117500", "095247.117500", "095249.117500", "095251.117500", "095253.117500", "095255.117500", "095257.117500", "095259.117500", "095301.117500", "095303.117500", "095305.117500", "095307.117500", "095309.117500", "095311.117500", "095313.117500", "095315.117500", "095317.117500", "095319.117500", "095321.117500", "095323.117500", "095325.117500", "095327.117500", "095329.117500", "095331.117500", "095333.117500", "095335.117500", "095337.117500", "095339.117500", "095341.117500", "095343.117500", "095345.117500", "095347.117500", "095349.117500", "095351.117500", "095353.117500", "095355.117500", "095357.117500", "095359.117500", "095401.117500", "095403.117500", "095405.117500", "095407.117500", "095409.117500", "095411.117500", "095413.117500", "095415.117500", "095417.117500", "095419.117500", "095421.117500", "095423.117500", "095425.117500", "095427.117500", "095429.117500", "095431.117500", "095433.117500", "095435.117500", "095437.117500", "095439.117500", "095441.117500", "095443.117500", "095445.117500", "095447.117500", "095449.117500", "095451.117500", "095453.117500", "095455.117500", "095457.117500", "095459.117500", "095501.117500", "095503.117500", "095505.117500", "095507.117500", "095509.117500", "095511.117500", "095513.117500", "095515.117500", "095517.117500", "095519.117500", "095521.117500", "095523.117500", "095525.117500", "095527.117500", "095529.117500", "095531.117500", "095533.117500", "095535.117500", "095537.117500", "095539.117500", "095541.117500", "095543.117500", "095545.117500", "095547.117500", "095549.117500", "095551.117500", "095553.117500", "095555.117500", "095557.117500", "095559.117500", "095601.117500", "095603.117500", "095605.117500", "095607.117500", "095609.117500", "095611.117500", "095613.117500", "095615.117500", "095617.117500", "095619.117500", "095621.117500", "095623.117500", "095625.117500", "095627.117500", "095629.117500", "095631.117500", "095633.117500", "095635.117500", "095637.117500", "095639.117500", "095641.117500", "095643.117500", "095645.117500", "095647.117500", "095649.117500", "095651.117500", "095653.117500", "095655.117500", "095657.117500", "095659.117500", "095701.117500", "095703.117500", "095705.117500", "095707.117500", "095709.117500", "095711.117500", "095713.117500", "095715.117500", "095717.117500", "095719.117500", "095721.117500", "095723.117500", "095725.117500", "095727.117500", "095729.117500", "095731.117500", "095733.117500", "095735.117500", "095737.117500", "095739.117500", "095741.117500", "095743.117500", "095745.117500", "095747.117500", "095749.117500", "095751.117500", "095753.117500", "095755.117500", "095757.117500", "095759.117500", "095801.117500", "095803.117500", "095805.117500", "095807.117500", "095809.117500", "095811.117500", "095813.117500", "095815.117500", "095817.117500", "095819.117500", "095821.117500", "095823.117500", "095825.117500", "095827.117500", "095829.117500", "095831.117500", "095833.117500", "095835.117500", "095837.117500", "095839.117500", "095841.117500", "095843.117500", "095845.117500", "095847.117500", "095849.117500", "095851.117500", "095853.117500", "095855.117500", "095857.117500", "095859.117500", "095901.117500", "095903.117500", "095905.117500", "095907.117500", "095909.117500", "095911.117500", "095913.117500", "095915.117500", "095917.117500", "095919.117500", "095921.117500", "095923.117500", "095925.117500", "095927.117500", "095929.117500", "095931.117500", "095933.117500", "095935.117500", "095937.117500", "095939.117500", "095941.117500", "095943.117500", "095945.117500", "095947.117500", "095949.117500", "095951.117500", "095953.117500", "095955.117500", "095957.117500", "095959.117500", "100001.117500", "100003.117500", "100005.117500", "100007.117500", "100009.117500", "100011.117500", "100013.117500", "100015.117500", "100017.117500"],
      "ContentTime": ["095324.037000", "095324.041000", "095324.045000", "095324.048000", "095324.051000", "095324.054000", "095324.057000", "095324.060000", "095324.063000", "095324.067000", "095324.070000", "095324.073000", "095324.076000", "095324.090000", "095324.093000", "095324.102000", "095324.105000", "095324.108000", "095324.111000", "095324.114000", "095324.118000", "095324.121000", "095324.124000", "095324.127000", "095324.130000", "095324.133000", "095324.136000", "095324.140000", "095324.143000", "095404.031000", "095404.034000", "095404.036000", "095404.039000", "095404.041000", "095404.043000", "095404.046000", "095404.048000", "095404.051000", "095404.053000", "095404.056000", "095404.058000", "095404.071000", "095404.074000", "095404.076000", "095404.079000", "095404.081000", "095404.084000", "095404.086000", "095404.088000", "095444.030000", "095444.033000", "095444.035000", "095444.038000", "095444.040000", "095444.043000", "095444.046000", "095444.048000", "095444.051000", "095444.065000", "095444.067000", "095444.070000", "095444.073000", "095444.075000", "095444.078000", "095444.080000", "095444.083000", "095444.086000", "095444.088000", "095444.091000", "095524.032000", "095524.035000", "095524.039000", "095524.042000", "095524.045000", "095524.048000", "095524.051000", "095524.054000", "095524.057000", "095524.061000", "095524.064000", "095524.067000", "095524.070000", "095524.073000", "095524.076000", "095524.079000", "095524.083000", "095524.086000", "095524.089000", "095524.092000", "095604.030000", "095604.033000", "095604.036000", "095604.043000", "095604.046000", "095604.048000", "095604.050000", "095604.053000", "095604.055000", "095604.058000", "095604.060000", "095604.063000", "095604.065000", "095604.067000", "095604.070000", "095604.072000", "095604.075000", "095604.077000", "095604.079000", "095604.082000", "095644.030000", "095644.033000", "095644.036000", "095644.038000", "095644.041000", "095644.043000", "095644.046000", "095644.048000", "095644.051000", "095644.053000", "095644.055000", "095644.058000", "095644.060000", "095644.063000", "095644.065000", "095644.068000", "095644.070000", "095644.072000", "095644.075000", "095644.077000", "095724.034000", "095724.038000", "095724.041000", "095724.044000", "095724.047000", "095724.050000", "095724.054000", "095724.057000", "095724.060000", "095724.063000", "095724.067000", "095724.070000", "095724.073000", "095724.076000", "095724.080000", "095724.083000", "095724.086000", "095724.089000", "095724.093000", "095724.096000", "095804.031000", "095804.033000", "095804.036000", "095804.038000", "095804.041000", "095804.043000", "095804.046000", "095804.048000", "095804.050000", "095804.053000", "095804.055000", "095804.058000", "095804.060000", "095804.063000", "095804.065000", "095804.067000", "095804.070000", "095804.072000", "095804.075000", "095804.077000", "095844.031000", "095844.033000", "095844.036000", "095844.039000", "095844.041000", "095844.044000", "095844.046000", "095844.049000", "095844.052000", "095844.054000", "095844.057000", "095844.059000", "095844.062000", "095844.064000", "095844.067000", "095844.070000", "095844.072000", "095844.075000", "095844.077000", "095844.080000", "095924.030000", "095924.034000", "095924.038000", "095924.041000", "095924.044000", "095924.047000", "095924.051000", "095924.054000", "095924.058000", "095924.061000", "095924.064000", "095924.067000", "095924.070000", "095924.073000", "095924.077000", "095924.080000", "095924.083000", "095924.086000", "095924.089000", "095924.092000", "100004.031000", "100004.034000", "100004.036000", "100004.038000", "100004.041000", "100004.043000", "100004.046000", "100004.048000", "100004.051000", "100004.053000", "100004.055000", "100004.058000", "100004.060000", "100004.063000", "100004.065000", "100004.068000", "100004.070000", "100004.073000", "100004.075000", "100004.078000", "100018.297000", "100018.302000", "100018.305000", "100018.309000", "100018.318000", "100018.321000", "100018.325000", "100018.330000"],
      "InstanceCreationTime": ["095324.037000", "095324.041000", "095324.045000", "095324.048000", "095324.051000", "095324.054000", "095324.057000", "095324.060000", "095324.063000", "095324.067000", "095324.070000", "095324.073000", "095324.076000", "095324.090000", "095324.093000", "095324.102000", "095324.105000", "095324.108000", "095324.111000", "095324.114000", "095324.118000", "095324.121000", "095324.124000", "095324.127000", "095324.130000", "095324.133000", "095324.136000", "095324.140000", "095324.143000", "095404.031000", "095404.034000", "095404.036000", "095404.039000", "095404.041000", "095404.043000", "095404.046000", "095404.048000", "095404.051000", "095404.053000", "095404.056000", "095404.058000", "095404.071000", "095404.074000", "095404.076000", "095404.079000", "095404.081000", "095404.084000", "095404.086000", "095404.088000", "095444.030000", "095444.033000", "095444.035000", "095444.038000", "095444.040000", "095444.043000", "095444.046000", "095444.048000", "095444.051000", "095444.065000", "095444.067000", "095444.070000", "095444.073000", "095444.075000", "095444.078000", "095444.080000", "095444.083000", "095444.086000", "095444.088000", "095444.091000", "095524.032000", "095524.035000", "095524.039000", "095524.042000", "095524.045000", "095524.048000", "095524.051000", "095524.054000", "095524.057000", "095524.061000", "095524.064000", "095524.067000", "095524.070000", "095524.073000", "095524.076000", "095524.079000", "095524.083000", "095524.086000", "095524.089000", "095524.092000", "095604.030000", "095604.033000", "095604.036000", "095604.043000", "095604.046000", "095604.048000", "095604.050000", "095604.053000", "095604.055000", "095604.058000", "095604.060000", "095604.063000", "095604.065000", "095604.067000", "095604.070000", "095604.072000", "095604.075000", "095604.077000", "095604.079000", "095604.082000", "095644.030000", "095644.033000", "095644.036000", "095644.038000", "095644.041000", "095644.043000", "095644.046000", "095644.048000", "095644.051000", "095644.053000", "095644.055000", "095644.058000", "095644.060000", "095644.063000", "095644.065000", "095644.068000", "095644.070000", "095644.072000", "095644.075000", "095644.077000", "095724.034000", "095724.038000", "095724.041000", "095724.044000", "095724.047000", "095724.050000", "095724.054000", "095724.057000", "095724.060000", "095724.063000", "095724.067000", "095724.070000", "095724.073000", "095724.076000", "095724.080000", "095724.083000", "095724.086000", "095724.089000", "095724.093000", "095724.096000", "095804.031000", "095804.033000", "095804.036000", "095804.038000", "095804.041000", "095804.043000", "095804.046000", "095804.048000", "095804.050000", "095804.053000", "095804.055000", "095804.058000", "095804.060000", "095804.063000", "095804.065000", "095804.067000", "095804.070000", "095804.072000", "095804.075000", "095804.077000", "095844.031000", "095844.033000", "095844.036000", "095844.039000", "095844.041000", "095844.044000", "095844.046000", "095844.049000", "095844.052000", "095844.054000", "095844.057000", "095844.059000", "095844.062000", "095844.064000", "095844.067000", "095844.070000", "095844.072000", "095844.075000", "095844.077000", "095844.080000", "095924.030000", "095924.034000", "095924.038000", "095924.041000", "095924.044000", "095924.047000", "095924.051000", "095924.054000", "095924.058000", "095924.061000", "095924.064000", "095924.067000", "095924.070000", "095924.073000", "095924.077000", "095924.080000", "095924.083000", "095924.086000", "095924.089000", "095924.092000", "100004.031000", "100004.034000", "100004.036000", "100004.038000", "100004.041000", "100004.043000", "100004.046000", "100004.048000", "100004.051000", "100004.053000", "100004.055000", "100004.058000", "100004.060000", "100004.063000", "100004.065000", "100004.068000", "100004.070000", "100004.073000", "100004.075000", "100004.078000", "100018.297000", "100018.302000", "100018.305000", "100018.309000", "100018.318000", "100018.321000", "100018.325000", "100018.330000"],
      "InstanceNumber": [1, 2, 3, 4, 5, 6, 7, 8, 9, 10, 11, 12, 13, 14, 15, 16, 17, 18, 19, 20, 21, 22, 23, 24, 25, 26, 27, 28, 29, 30, 31, 32, 33, 34, 35, 36, 37, 38, 39, 40, 41, 42, 43, 44, 45, 46, 47, 48, 49, 50, 51, 52, 53, 54, 55, 56, 57, 58, 59, 60, 61, 62, 63, 64, 65, 66, 67, 68, 69, 70, 71, 72, 73, 74, 75, 76, 77, 78, 79, 80, 81, 82, 83, 84, 85, 86, 87, 88, 89, 90, 91, 92, 93, 94, 95, 96, 97, 98, 99, 100, 101, 102, 103, 104, 105, 106, 107, 108, 109, 110, 111, 112, 113, 114, 115, 116, 117, 118, 119, 120, 121, 122, 123, 124, 125, 126, 127, 128, 129, 130, 131, 132, 133, 134, 135, 136, 137, 138, 139, 140, 141, 142, 143, 144, 145, 146, 147, 148, 149, 150, 151, 152, 153, 154, 155, 156, 157, 158, 159, 160, 161, 162, 163, 164, 165, 166, 167, 168, 169, 170, 171, 172, 173, 174, 175, 176, 177, 178, 179, 180, 181, 182, 183, 184, 185, 186, 187, 188, 189, 190, 191, 192, 193, 194, 195, 196, 197, 198, 199, 200, 201, 202, 203, 204, 205, 206, 207, 208, 209, 210, 211, 212, 213, 214, 215, 216, 217, 218, 219, 220, 221, 222, 223, 224, 225, 226, 227, 228, 229, 230, 231, 232, 233, 234, 235, 236, 237],
      "LargestImagePixelValue": [1398, 1461, 1373, 1401, 1574, 1855, 1402, 1413, 1421, 1572, 1941, 1372, 1380, 1626, 1580, 1384, 1523, 1399, 1892, 1972, 1417, 1411, 1424, 1600, 1374, 1405, 1464, 1463, 1547, 1526, 1452, 1440, 1398, 1398, 2020, 1595, 1374, 1395, 1800, 1740, 1395, 1388, 1456, 1598, 1522, 1664, 1603, 1436, 1398, 1424, 1636, 1408, 1726, 1849, 1461, 1521, 1410, 1403, 1723, 1518, 1395, 1403, 1892, 1654, 1407, 1409, 1392, 1893, 1459, 1439, 1661, 1885, 1381, 1390, 1513, 2056, 1416, 1416, 1616, 1635, 1885, 2090, 1427, 1416, 1981, 1434, 1417, 1423, 1416, 1679, 1586, 1631, 1733, 1475, 1996, 1510, 1432, 1419, 1412, 1503, 1531, 1441, 1555, 1403, 1502, 1805, 1919, 1426, 1416, 1511, 1657, 1861, 1418, 1610, 1460, 1416, 1439, 1407, 1480, 1563, 1661, 1821, 1495, 1433, 1418, 1585, 1472, 1411, 1651, 1666, 1642, 1558, 1415, 1426, 1453, 1447, 1421, 1947, 1561, 1424, 1407, 1490, 1421, 1400, 1445, 2067, 1608, 1422, 1414, 1424, 1419, 1419, 1589, 1555, 1804, 1429, 1409, 1488, 1420, 1430, 1412, 1403, 1607, 1410, 1445, 2069, 1467, 1421, 1415, 1414, 1411, 1415, 1832, 1549, 1399, 1403, 1456, 1418, 1566, 1589, 1766, 1460, 1407, 1402, 1556, 1428, 1467, 1432, 1626, 1675, 1417, 1427, 1419, 2043, 1565, 1421, 1639, 1888, 1591, 1393, 1561, 1510, 1543, 1859, 1428, 1429, 1449, 1444, 1483, 1664, 1426, 1497, 1954, 1599, 1453, 1440, 1518, 1545, 1659, 1868, 1429, 1451, 1452, 1549, 1473, 1490, 1445, 1447, 1798, 1906, 1934, 1446, 1437, 1442, 1441, 1545, 1440],
      "WindowCenter": [647.0, 647.0, 645.0, 647.0, 647.0, 647.0, 645.0, 646.0, 646.0, 646.0, 647.0, 646.0, 646.0, 647.0, 647.0, 646.0, 647.0, 646.0, 649.0, 648.0, 645.0, 646.0, 646.0, 647.0, 646.0, 646.0, 647.0, 647.0, 647.0, 647.0, 646.0, 647.0, 646.0, 646.0, 649.0, 647.0, 646.0, 646.0, 647.0, 647.0, 645.0, 645.0, 646.0, 647.0, 647.0, 647.0, 647.0, 646.0, 646.0, 646.0, 647.0, 646.0, 647.0, 647.0, 645.0, 646.0, 645.0, 645.0, 647.0, 645.0, 646.0, 646.0, 649.0, 648.0, 646.0, 646.0, 646.0, 648.0, 645.0, 645.0, 646.0, 647.0, 645.0, 645.0, 646.0, 648.0, 646.0, 646.0, 647.0, 647.0, 648.0, 648.0, 645.0, 645.0, 648.0, 645.0, 645.0, 647.0, 647.0, 648.0, 646.0, 646.0, 647.0, 646.0, 648.0, 645.0, 645.0, 645.0, 645.0, 647.0, 648.0, 647.0, 647.0, 646.0, 646.0, 646.0, 646.0, 645.0, 645.0, 647.0, 647.0, 647.0, 645.0, 646.0, 645.0, 645.0, 646.0, 645.0, 646.0, 647.0, 647.0, 647.0, 646.0, 646.0, 645.0, 646.0, 645.0, 646.0, 648.0, 647.0, 646.0, 646.0, 646.0, 645.0, 646.0, 646.0, 646.0, 647.0, 645.0, 645.0, 646.0, 646.0, 646.0, 646.0, 646.0, 649.0, 646.0, 645.0, 645.0, 646.0, 646.0, 646.0, 646.0, 646.0, 647.0, 646.0, 645.0, 646.0, 645.0, 646.0, 645.0, 645.0, 647.0, 646.0, 646.0, 649.0, 646.0, 645.0, 645.0, 645.0, 646.0, 646.0, 647.0, 645.0, 645.0, 646.0, 647.0, 646.0, 647.0, 647.0, 646.0, 645.0, 645.0, 645.0, 646.0, 645.0, 646.0, 646.0, 647.0, 647.0, 645.0, 646.0, 646.0, 648.0, 646.0, 644.0, 646.0, 647.0, 645.0, 644.0, 645.0, 647.0, 646.0, 647.0, 645.0, 645.0, 646.0, 646.0, 647.0, 648.0, 646.0, 646.0, 647.0, 645.0, 645.0, 646.0, 647.0, 646.0, 646.0, 647.0, 645.0, 646.0, 646.0, 646.0, 646.0, 647.0, 647.0, 647.0, 648.0, 648.0, 648.0, 646.0, 645.0, 644.0, 645.0, 647.0, 647.0],
      "WindowWidth": [1401.0, 1400.0, 1395.0, 1399.0, 1400.0, 1400.0, 1394.0, 1397.0, 1396.0, 1397.0, 1400.0, 1397.0, 1397.0, 1399.0, 1399.0, 1397.0, 1400.0, 1398.0, 1403.0, 1402.0, 1396.0, 1397.0, 1397.0, 1400.0, 1397.0, 1397.0, 1399.0, 1400.0, 1400.0, 1399.0, 1397.0, 1399.0, 1398.0, 1397.0, 1403.0, 1398.0, 1396.0, 1397.0, 1401.0, 1400.0, 1395.0, 1396.0, 1397.0, 1401.0, 1399.0, 1400.0, 1398.0, 1396.0, 1396.0, 1396.0, 1401.0, 1397.0, 1400.0, 1399.0, 1395.0, 1396.0, 1396.0, 1396.0, 1399.0, 1396.0, 1396.0, 1398.0, 1404.0, 1401.0, 1396.0, 1396.0, 1397.0, 1402.0, 1395.0, 1394.0, 1397.0, 1400.0, 1394.0, 1396.0, 1397.0, 1403.0, 1397.0, 1398.0, 1401.0, 1399.0, 1400.0, 1401.0, 1395.0, 1395.0, 1402.0, 1395.0, 1395.0, 1399.0, 1400.0, 1402.0, 1397.0, 1397.0, 1398.0, 1396.0, 1403.0, 1394.0, 1394.0, 1394.0, 1396.0, 1399.0, 1401.0, 1399.0, 1400.0, 1398.0, 1397.0, 1398.0, 1397.0, 1394.0, 1396.0, 1400.0, 1400.0, 1400.0, 1395.0, 1398.0, 1395.0, 1395.0, 1396.0, 1395.0, 1397.0, 1399.0, 1400.0, 1400.0, 1397.0, 1397.0, 1396.0, 1397.0, 1394.0, 1396.0, 1402.0, 1400.0, 1398.0, 1397.0, 1397.0, 1396.0, 1396.0, 1396.0, 1396.0, 1400.0, 1395.0, 1395.0, 1396.0, 1398.0, 1396.0, 1398.0, 1398.0, 1404.0, 1397.0, 1393.0, 1395.0, 1397.0, 1397.0, 1396.0, 1397.0, 1396.0, 1401.0, 1396.0, 1395.0, 1396.0, 1395.0, 1396.0, 1395.0, 1395.0, 1399.0, 1397.0, 1398.0, 1404.0, 1396.0, 1394.0, 1394.0, 1395.0, 1397.0, 1397.0, 1400.0, 1395.0, 1394.0, 1397.0, 1400.0, 1397.0, 1400.0, 1398.0, 1397.0, 1393.0, 1393.0, 1394.0, 1398.0, 1395.0, 1396.0, 1396.0, 1399.0, 1399.0, 1396.0, 1397.0, 1398.0, 1403.0, 1397.0, 1392.0, 1396.0, 1398.0, 1394.0, 1392.0, 1396.0, 1399.0, 1398.0, 1400.0, 1394.0, 1395.0, 1396.0, 1397.0, 1400.0, 1401.0, 1397.0, 1396.0, 1398.0, 1394.0, 1394.0, 1397.0, 1398.0, 1397.0, 1398.0, 1400.0, 1395.0, 1397.0, 1397.0, 1397.0, 1398.0, 1399.0, 1400.0, 1401.0, 1403.0, 1402.0, 1403.0, 1396.0, 1394.0, 1393.0, 1394.0, 1399.0, 1399.0]
    },
    "slices": {}
  }
}