{
  "AcquisitionMatrixPE": 70,
  "AcquisitionNumber": 1,
  "AcquisitionTime": "14:47:40.385000",
  "BandwidthPerPixelPhaseEncode": 38.873,
  "BaseResolution": 70,
  "BodyPartExamined": "HEAD",
  "ConsistencyInfo": "N4_VE11B_LATEST_20150530",
  "ConversionSoftware": "dcm2niix",
  "ConversionSoftwareVersion": "v1.0.20190410  GCC6.3.0",
  "DerivedVendorReportedEchoSpacing": 0.000489996,
  "DeviceSerialNumber": "66088",
  "DwellTime": 2.9e-06,
  "EchoTime": 0.03,
  "EchoTrainLength": 53,
  "EffectiveEchoSpacing": 0.000367497,
  "FlipAngle": 90,
  "ImageOrientationPatientDICOM": [0.999292, 0.00503691, 0.0372854, 0.00872063, 0.933003, -0.359764],
  "ImageType": [
    "ORIGINAL",
    "PRIMARY",
    "M",
    "ND",
    "NORM",
    "MOSAIC"
],
  "ImagingFrequency": 123.191,
  "InPlanePhaseEncodingDirectionDICOM": "COL",
  "InstitutionAddress": "Street_StreetNo_City_District_IR_ZIP",
  "InstitutionName": "NBML",
  "InstitutionalDepartmentName": "Department",
  "MRAcquisitionType": "2D",
  "MagneticFieldStrength": 3,
  "Manufacturer": "Siemens",
  "ManufacturersModelName": "Prisma",
  "Modality": "MR",
  "ParallelReductionFactorInPlane": 2,
  "PartialFourier": 1,
  "PatientPosition": "HFS",
  "PercentPhaseFOV": 100,
  "PhaseEncodingDirection": "j-",
  "PhaseEncodingSteps": 105,
  "PhaseOversampling": 0.5,
  "PhaseResolution": 1,
  "PixelBandwidth": 2465,
  "ProcedureStepDescription": "NBML_Project_P_96169_Ebrahiminiya-Khaliq",
  "ProtocolName": "ep2d_p2_Task_3.5_measurment:237",
  "PulseSequenceDetails": "%SiemensSeq%_ep2d_pace",
  "ReceiveCoilActiveElements": "HC1-7;NC1",
  "ReceiveCoilName": "HeadNeck_64",
  "ReconMatrixPE": 70,
  "RefLinesPE": 24,
  "RepetitionTime": 2,
  "SAR": 0.113225,
  "ScanOptions": "FS",
  "ScanningSequence": "EP",
  "SequenceName": "_epfid2d1_70",
  "SequenceVariant": "SK_OSP",
  "SeriesDescription": "ep2d_p2_Task_3.5_measurment:237",
  "SeriesNumber": 4,
  "ShimSetting": [2592, -4461, -3213, 339, 25, -218, -38, 12],
  "SliceThickness": 3.5,
  "SliceTiming": [0.99, 0, 1.0475, 0.0575, 1.105, 0.115, 1.1625, 0.1725, 1.2225, 0.2325, 1.28, 0.29, 1.3375, 0.3475, 1.3975, 0.4075, 1.455, 0.465, 1.5125, 0.5225, 1.57, 0.5825, 1.63, 0.64, 1.6875, 0.6975, 1.745, 0.755, 1.805, 0.815, 1.8625, 0.8725, 1.92, 0.93],
  "SoftwareVersions": "syngo_MR_E11",
  "SpacingBetweenSlices": 4.025,
  "StationName": "AWP66088",
  "TaskName": "categorySelectivity",
  "TotalReadoutTime": 0.0253573,
  "TxRefAmp": 278.018,
  "dcmmeta_affine": [
    [-3.540348768234253, 0.030895953997969627, 0.14731276035308838, 123.65088653564453],
    [-0.017845066264271736, 3.305495500564575, -1.448331594467163, -85.1257095336914],
    [0.13209670782089233, 1.2745907306671143, 3.752500534057617, -78.9910659790039],
    [0.0, 0.0, 0.0, 1.0]
],
  "dcmmeta_reorient_transform": [
    [0.0, -1.0, 0.0, 69.0],
    [1.0, 0.0, 0.0, 0.0],
    [0.0, 0.0, 1.0, 0.0],
    [0.0, 0.0, 0.0, 1.0]
],
  "dcmmeta_shape": [70, 70, 34, 237],
  "dcmmeta_slice_dim": 2,
  "dcmmeta_version": 0.6,
  "global": {
    "const": {
      "AccessionNumber": "m.brz",
      "AcquisitionMatrix": [70, 0, 0, 70],
      "AngioFlag": "N",
      "BitsAllocated": 16,
      "BitsStored": 12,
      "BodyPartExamined": "HEAD",
      "Columns": 420,
      "EchoNumbers": 1,
      "EchoTime": 30.0,
      "EchoTrainLength": 53,
      "FlipAngle": 90.0,
      "HighBit": 11,
      "ImageOrientationPatient": [0.99929196505938, 0.00503691372068, 0.03728535996778, 0.00872063230176, 0.93300276664729, -0.3597635167729],
      "ImagePositionPatient": [-750.75052009797, -724.53808609399, 208.89215337076],
      "ImageType": [
        "ORIGINAL",
        "PRIMARY",
        "M",
        "ND",
        "NORM",
        "MOSAIC"
],
      "ImagedNucleus": "1H",
      "ImagingFrequency": 123.191143,
      "InPlanePhaseEncodingDirection": "COL",
      "MRAcquisitionType": "2D",
      "MagneticFieldStrength": 3.0,
      "Manufacturer": "SIEMENS",
      "ManufacturerModelName": "Prisma",
      "Modality": "MR",
      "NumberOfAverages": 1.0,
      "NumberOfPhaseEncodingSteps": 105,
      "PercentPhaseFieldOfView": 100.0,
      "PercentSampling": 100.0,
      "PerformedProcedureStepStartTime": "143102.179000",
      "PhotometricInterpretation": "MONOCHROME2",
      "PixelBandwidth": 2465.0,
      "PixelRepresentation": 0,
      "PixelSpacing": [3.542857170105, 3.542857170105],
      "ProtocolName": "ep2d_p2_Task_3.5_measurment:237",
      "RepetitionTime": 2000.0,
      "Rows": 420,
      "SAR": 0.11322529313423,
      "SamplesPerPixel": 1,
      "ScanOptions": "FS",
      "ScanningSequence": "EP",
      "SequenceName": "*epfid2d1_70",
      "SequenceVariant": [
        "SK",
        "OSP"
],
      "SeriesDescription": "ep2d_p2_Task_3.5_measurment:237",
      "SeriesNumber": 4,
      "SeriesTime": "144825.843000",
      "SliceLocation": -38.486559235788,
      "SliceThickness": 3.5,
      "SmallestImagePixelValue": 0,
      "SoftwareVersions": "syngo MR E11",
      "SpacingBetweenSlices": 4.0250000568774,
      "SpecificCharacterSet": "ISO_IR 100",
      "StudyID": "1",
      "StudyTime": "143102.118000",
      "TransmitCoilName": "Body",
      "VariableFlipAngleFlag": "N",
      "WindowCenterWidthExplanation": "Algo1",
      "dBdt": 0.0},
    "slices": {}
  },
  "time": {
    "samples": {
      "AcquisitionNumber": [1, 2, 3, 4, 5, 6, 7, 8, 9, 10, 11, 12, 13, 14, 15, 16, 17, 18, 19, 20, 21, 22, 23, 24, 25, 26, 27, 28, 29, 30, 31, 32, 33, 34, 35, 36, 37, 38, 39, 40, 41, 42, 43, 44, 45, 46, 47, 48, 49, 50, 51, 52, 53, 54, 55, 56, 57, 58, 59, 60, 61, 62, 63, 64, 65, 66, 67, 68, 69, 70, 71, 72, 73, 74, 75, 76, 77, 78, 79, 80, 81, 82, 83, 84, 85, 86, 87, 88, 89, 90, 91, 92, 93, 94, 95, 96, 97, 98, 99, 100, 101, 102, 103, 104, 105, 106, 107, 108, 109, 110, 111, 112, 113, 114, 115, 116, 117, 118, 119, 120, 121, 122, 123, 124, 125, 126, 127, 128, 129, 130, 131, 132, 133, 134, 135, 136, 137, 138, 139, 140, 141, 142, 143, 144, 145, 146, 147, 148, 149, 150, 151, 152, 153, 154, 155, 156, 157, 158, 159, 160, 161, 162, 163, 164, 165, 166, 167, 168, 169, 170, 171, 172, 173, 174, 175, 176, 177, 178, 179, 180, 181, 182, 183, 184, 185, 186, 187, 188, 189, 190, 191, 192, 193, 194, 195, 196, 197, 198, 199, 200, 201, 202, 203, 204, 205, 206, 207, 208, 209, 210, 211, 212, 213, 214, 215, 216, 217, 218, 219, 220, 221, 222, 223, 224, 225, 226, 227, 228, 229, 230, 231, 232, 233, 234, 235, 236, 237],
      "AcquisitionTime": ["144740.385000", "144742.385000", "144744.385000", "144746.385000", "144748.385000", "144750.385000", "144752.385000", "144754.385000", "144756.385000", "144758.385000", "144800.385000", "144802.385000", "144804.385000", "144806.385000", "144808.385000", "144810.385000", "144812.385000", "144814.385000", "144816.385000", "144818.385000", "144820.385000", "144822.385000", "144824.385000", "144826.385000", "144828.385000", "144830.385000", "144832.385000", "144834.385000", "144836.385000", "144838.385000", "144840.385000", "144842.385000", "144844.385000", "144846.385000", "144848.385000", "144850.385000", "144852.385000", "144854.385000", "144856.385000", "144858.385000", "144900.385000", "144902.385000", "144904.385000", "144906.385000", "144908.385000", "144910.385000", "144912.385000", "144914.385000", "144916.385000", "144918.385000", "144920.385000", "144922.385000", "144924.385000", "144926.385000", "144928.385000", "144930.385000", "144932.385000", "144934.385000", "144936.385000", "144938.385000", "144940.385000", "144942.385000", "144944.385000", "144946.385000", "144948.385000", "144950.385000", "144952.385000", "144954.385000", "144956.385000", "144958.385000", "145000.385000", "145002.385000", "145004.385000", "145006.385000", "145008.385000", "145010.385000", "145012.385000", "145014.385000", "145016.385000", "145018.385000", "145020.385000", "145022.385000", "145024.385000", "145026.385000", "145028.385000", "145030.385000", "145032.385000", "145034.385000", "145036.385000", "145038.385000", "145040.385000", "145042.385000", "145044.385000", "145046.385000", "145048.385000", "145050.385000", "145052.385000", "145054.385000", "145056.385000", "145058.385000", "145100.385000", "145102.385000", "145104.385000", "145106.385000", "145108.385000", "145110.385000", "145112.385000", "145114.385000", "145116.385000", "145118.385000", "145120.385000", "145122.385000", "145124.385000", "145126.385000", "145128.385000", "145130.385000", "145132.385000", "145134.385000", "145136.385000", "145138.385000", "145140.385000", "145142.385000", "145144.385000", "145146.385000", "145148.385000", "145150.385000", "145152.385000", "145154.385000", "145156.385000", "145158.385000", "145200.385000", "145202.385000", "145204.385000", "145206.385000", "145208.385000", "145210.385000", "145212.385000", "145214.385000", "145216.385000", "145218.385000", "145220.385000", "145222.385000", "145224.385000", "145226.385000", "145228.385000", "145230.385000", "145232.385000", "145234.385000", "145236.385000", "145238.385000", "145240.385000", "145242.385000", "145244.385000", "145246.385000", "145248.385000", "145250.385000", "145252.385000", "145254.385000", "145256.385000", "145258.385000", "145300.385000", "145302.385000", "145304.385000", "145306.385000", "145308.385000", "145310.385000", "145312.385000", "145314.385000", "145316.385000", "145318.385000", "145320.385000", "145322.385000", "145324.385000", "145326.385000", "145328.385000", "145330.385000", "145332.385000", "145334.385000", "145336.385000", "145338.385000", "145340.385000", "145342.385000", "145344.385000", "145346.385000", "145348.385000", "145350.385000", "145352.385000", "145354.385000", "145356.385000", "145358.385000", "145400.385000", "145402.385000", "145404.385000", "145406.385000", "145408.385000", "145410.385000", "145412.385000", "145414.385000", "145416.385000", "145418.385000", "145420.385000", "145422.385000", "145424.385000", "145426.385000", "145428.385000", "145430.385000", "145432.385000", "145434.385000", "145436.385000", "145438.385000", "145440.385000", "145442.385000", "145444.385000", "145446.385000", "145448.385000", "145450.385000", "145452.385000", "145454.385000", "145456.385000", "145458.385000", "145500.385000", "145502.385000", "145504.385000", "145506.385000", "145508.385000", "145510.385000", "145512.385000", "145514.385000", "145516.385000", "145518.385000", "145520.385000", "145522.385000", "145524.385000", "145526.385000", "145528.385000", "145530.385000", "145532.385000"],
      "ContentTime": ["144825.848000", "144825.861000", "144825.864000", "144825.867000", "144825.876000", "144825.879000", "144825.883000", "144825.886000", "144825.890000", "144825.893000", "144825.897000", "144825.900000", "144825.906000", "144825.909000", "144825.912000", "144825.915000", "144825.919000", "144825.922000", "144825.925000", "144825.930000", "144825.934000", "144825.937000", "144905.841000", "144905.844000", "144905.848000", "144905.851000", "144905.854000", "144905.857000", "144905.861000", "144905.864000", "144905.868000", "144905.871000", "144905.874000", "144905.877000", "144905.880000", "144905.884000", "144905.887000", "144905.890000", "144905.894000", "144905.897000", "144905.900000", "144905.904000", "144945.844000", "144945.847000", "144945.850000", "144945.852000", "144945.855000", "144945.857000", "144945.860000", "144945.862000", "144945.865000", "144945.867000", "144945.869000", "144945.872000", "144945.874000", "144945.877000", "144945.879000", "144945.882000", "144945.884000", "144945.887000", "144945.889000", "144945.892000", "145025.851000", "145025.864000", "145025.873000", "145025.876000", "145025.879000", "145025.886000", "145025.890000", "145025.893000", "145025.898000", "145025.902000", "145025.905000", "145025.908000", "145025.912000", "145025.918000", "145025.923000", "145025.929000", "145025.943000", "145025.947000", "145025.951000", "145025.954000", "145105.841000", "145105.844000", "145105.848000", "145105.851000", "145105.854000", "145105.857000", "145105.860000", "145105.864000", "145105.867000", "145105.870000", "145105.874000", "145105.877000", "145105.880000", "145105.884000", "145105.887000", "145105.890000", "145105.894000", "145105.897000", "145105.900000", "145105.904000", "145145.842000", "145145.845000", "145145.847000", "145145.850000", "145145.852000", "145145.855000", "145145.857000", "145145.859000", "145145.862000", "145145.864000", "145145.867000", "145145.869000", "145145.872000", "145145.874000", "145145.876000", "145145.879000", "145145.881000", "145145.884000", "145145.886000", "145145.889000", "145225.845000", "145225.849000", "145225.852000", "145225.855000", "145225.858000", "145225.862000", "145225.865000", "145225.868000", "145225.872000", "145225.875000", "145225.878000", "145225.881000", "145225.885000", "145225.888000", "145225.891000", "145225.895000", "145225.898000", "145225.901000", "145225.904000", "145225.907000", "145305.842000", "145305.845000", "145305.848000", "145305.852000", "145305.855000", "145305.858000", "145305.861000", "145305.865000", "145305.868000", "145305.871000", "145305.875000", "145305.878000", "145305.881000", "145305.884000", "145305.888000", "145305.891000", "145305.894000", "145305.898000", "145305.901000", "145305.904000", "145345.842000", "145345.845000", "145345.847000", "145345.850000", "145345.853000", "145345.855000", "145345.858000", "145345.860000", "145345.863000", "145345.866000", "145345.868000", "145345.871000", "145345.873000", "145345.876000", "145345.879000", "145345.881000", "145345.884000", "145345.894000", "145345.896000", "145345.899000", "145425.843000", "145425.847000", "145425.851000", "145425.854000", "145425.857000", "145425.861000", "145425.864000", "145425.867000", "145425.870000", "145425.874000", "145425.877000", "145425.881000", "145425.884000", "145425.889000", "145425.893000", "145425.896000", "145425.899000", "145425.903000", "145425.906000", "145425.921000", "145505.842000", "145505.846000", "145505.849000", "145505.852000", "145505.855000", "145505.859000", "145505.862000", "145505.865000", "145505.869000", "145505.872000", "145505.875000", "145505.879000", "145505.882000", "145505.885000", "145505.888000", "145505.892000", "145505.895000", "145505.898000", "145505.901000", "145505.905000", "145534.212000", "145534.215000", "145534.218000", "145534.221000", "145534.224000", "145534.227000", "145534.229000", "145534.232000", "145534.235000", "145534.238000", "145534.241000", "145534.245000", "145534.247000", "145534.251000", "145534.254000"],
      "InstanceCreationTime": ["144825.848000", "144825.861000", "144825.864000", "144825.867000", "144825.876000", "144825.879000", "144825.883000", "144825.886000", "144825.890000", "144825.893000", "144825.897000", "144825.900000", "144825.906000", "144825.909000", "144825.912000", "144825.915000", "144825.919000", "144825.922000", "144825.925000", "144825.930000", "144825.934000", "144825.937000", "144905.841000", "144905.844000", "144905.848000", "144905.851000", "144905.854000", "144905.857000", "144905.861000", "144905.864000", "144905.868000", "144905.871000", "144905.874000", "144905.877000", "144905.880000", "144905.884000", "144905.887000", "144905.890000", "144905.894000", "144905.897000", "144905.900000", "144905.904000", "144945.844000", "144945.847000", "144945.850000", "144945.852000", "144945.855000", "144945.857000", "144945.860000", "144945.862000", "144945.865000", "144945.867000", "144945.869000", "144945.872000", "144945.874000", "144945.877000", "144945.879000", "144945.882000", "144945.884000", "144945.887000", "144945.889000", "144945.892000", "145025.851000", "145025.864000", "145025.873000", "145025.876000", "145025.879000", "145025.886000", "145025.890000", "145025.893000", "145025.898000", "145025.902000", "145025.905000", "145025.908000", "145025.912000", "145025.918000", "145025.923000", "145025.929000", "145025.943000", "145025.947000", "145025.951000", "145025.954000", "145105.841000", "145105.844000", "145105.848000", "145105.851000", "145105.854000", "145105.857000", "145105.860000", "145105.864000", "145105.867000", "145105.870000", "145105.874000", "145105.877000", "145105.880000", "145105.884000", "145105.887000", "145105.890000", "145105.894000", "145105.897000", "145105.900000", "145105.904000", "145145.842000", "145145.845000", "145145.847000", "145145.850000", "145145.852000", "145145.855000", "145145.857000", "145145.859000", "145145.862000", "145145.864000", "145145.867000", "145145.869000", "145145.872000", "145145.874000", "145145.876000", "145145.879000", "145145.881000", "145145.884000", "145145.886000", "145145.889000", "145225.845000", "145225.849000", "145225.852000", "145225.855000", "145225.858000", "145225.862000", "145225.865000", "145225.868000", "145225.872000", "145225.875000", "145225.878000", "145225.881000", "145225.885000", "145225.888000", "145225.891000", "145225.895000", "145225.898000", "145225.901000", "145225.904000", "145225.907000", "145305.842000", "145305.845000", "145305.848000", "145305.852000", "145305.855000", "145305.858000", "145305.861000", "145305.865000", "145305.868000", "145305.871000", "145305.875000", "145305.878000", "145305.881000", "145305.884000", "145305.888000", "145305.891000", "145305.894000", "145305.898000", "145305.901000", "145305.904000", "145345.842000", "145345.845000", "145345.847000", "145345.850000", "145345.853000", "145345.855000", "145345.858000", "145345.860000", "145345.863000", "145345.866000", "145345.868000", "145345.871000", "145345.873000", "145345.876000", "145345.879000", "145345.881000", "145345.884000", "145345.894000", "145345.896000", "145345.899000", "145425.843000", "145425.847000", "145425.851000", "145425.854000", "145425.857000", "145425.861000", "145425.864000", "145425.867000", "145425.870000", "145425.874000", "145425.877000", "145425.881000", "145425.884000", "145425.889000", "145425.893000", "145425.896000", "145425.899000", "145425.903000", "145425.906000", "145425.921000", "145505.842000", "145505.846000", "145505.849000", "145505.852000", "145505.855000", "145505.859000", "145505.862000", "145505.865000", "145505.869000", "145505.872000", "145505.875000", "145505.879000", "145505.882000", "145505.885000", "145505.888000", "145505.892000", "145505.895000", "145505.898000", "145505.901000", "145505.905000", "145534.212000", "145534.215000", "145534.218000", "145534.221000", "145534.224000", "145534.227000", "145534.229000", "145534.232000", "145534.235000", "145534.238000", "145534.241000", "145534.245000", "145534.247000", "145534.251000", "145534.254000"],
      "InstanceNumber": [1, 2, 3, 4, 5, 6, 7, 8, 9, 10, 11, 12, 13, 14, 15, 16, 17, 18, 19, 20, 21, 22, 23, 24, 25, 26, 27, 28, 29, 30, 31, 32, 33, 34, 35, 36, 37, 38, 39, 40, 41, 42, 43, 44, 45, 46, 47, 48, 49, 50, 51, 52, 53, 54, 55, 56, 57, 58, 59, 60, 61, 62, 63, 64, 65, 66, 67, 68, 69, 70, 71, 72, 73, 74, 75, 76, 77, 78, 79, 80, 81, 82, 83, 84, 85, 86, 87, 88, 89, 90, 91, 92, 93, 94, 95, 96, 97, 98, 99, 100, 101, 102, 103, 104, 105, 106, 107, 108, 109, 110, 111, 112, 113, 114, 115, 116, 117, 118, 119, 120, 121, 122, 123, 124, 125, 126, 127, 128, 129, 130, 131, 132, 133, 134, 135, 136, 137, 138, 139, 140, 141, 142, 143, 144, 145, 146, 147, 148, 149, 150, 151, 152, 153, 154, 155, 156, 157, 158, 159, 160, 161, 162, 163, 164, 165, 166, 167, 168, 169, 170, 171, 172, 173, 174, 175, 176, 177, 178, 179, 180, 181, 182, 183, 184, 185, 186, 187, 188, 189, 190, 191, 192, 193, 194, 195, 196, 197, 198, 199, 200, 201, 202, 203, 204, 205, 206, 207, 208, 209, 210, 211, 212, 213, 214, 215, 216, 217, 218, 219, 220, 221, 222, 223, 224, 225, 226, 227, 228, 229, 230, 231, 232, 233, 234, 235, 236, 237],
      "LargestImagePixelValue": [2326, 2338, 2949, 2002, 1780, 2657, 2085, 1984, 2008, 2256, 2193, 2493, 1668, 1667, 1942, 2451, 2066, 2276, 2077, 2343, 2309, 1935, 2264, 2828, 2320, 2190, 2061, 1904, 1675, 1669, 1674, 2327, 2262, 2638, 2391, 2296, 2150, 1852, 2956, 2859, 2135, 1668, 2234, 2173, 3090, 2234, 2076, 1855, 2150, 1996, 1676, 2030, 2218, 2063, 1916, 2260, 2288, 1855, 1978, 1679, 1929, 2583, 2405, 2464, 2512, 1811, 1704, 1941, 2404, 2784, 1846, 1978, 1890, 1672, 1856, 2274, 1999, 2339, 3216, 1941, 2120, 1911, 2379, 2630, 1952, 1674, 1928, 1729, 1672, 1672, 2446, 2205, 1941, 1681, 1678, 2237, 2403, 2179, 2440, 1853, 1675, 1720, 2097, 2110, 1910, 2148, 2354, 2098, 1783, 1674, 2471, 1669, 2071, 2453, 2039, 2182, 2695, 2656, 2205, 1666, 2262, 2349, 2198, 2538, 2075, 2037, 1768, 1954, 2246, 1672, 1673, 2073, 2076, 1937, 2121, 2222, 1865, 1796, 1992, 2136, 2143, 2429, 1919, 2420, 2103, 1815, 2170, 2165, 1949, 2070, 1691, 1840, 2177, 1925, 2149, 2435, 2150, 1787, 2282, 2067, 1823, 2387, 1735, 1650, 1844, 2654, 2051, 1986, 2031, 1736, 1661, 1937, 2033, 2901, 2239, 1979, 1878, 1661, 2079, 2387, 1664, 1666, 1655, 2185, 2756, 2793, 2270, 1672, 1660, 2434, 1814, 1659, 2194, 1868, 2237, 2173, 2138, 1665, 1940, 2528, 1800, 1988, 2203, 2003, 1787, 1663, 2599, 2502, 2000, 1988, 2588, 1805, 1668, 1666, 1716, 3052, 2186, 2059, 2049, 1689, 2063, 1665, 1670, 2395, 2389, 2782, 3074, 2088, 1991, 2112, 2000, 1913, 1667, 2156, 1669, 1751, 1991],
      "WindowCenter": [681.0, 680.0, 679.0, 678.0, 677.0, 681.0, 678.0, 677.0, 677.0, 678.0, 677.0, 678.0, 675.0, 678.0, 678.0, 680.0, 679.0, 680.0, 679.0, 679.0, 678.0, 677.0, 679.0, 680.0, 678.0, 678.0, 676.0, 676.0, 677.0, 678.0, 678.0, 681.0, 680.0, 681.0, 679.0, 679.0, 678.0, 678.0, 681.0, 680.0, 677.0, 677.0, 679.0, 679.0, 680.0, 678.0, 678.0, 679.0, 679.0, 679.0, 678.0, 679.0, 680.0, 679.0, 678.0, 679.0, 680.0, 677.0, 678.0, 678.0, 680.0, 681.0, 680.0, 680.0, 679.0, 677.0, 677.0, 678.0, 679.0, 680.0, 677.0, 678.0, 678.0, 677.0, 678.0, 681.0, 680.0, 680.0, 681.0, 677.0, 679.0, 677.0, 679.0, 679.0, 677.0, 677.0, 678.0, 677.0, 678.0, 677.0, 681.0, 680.0, 678.0, 676.0, 677.0, 680.0, 680.0, 680.0, 680.0, 678.0, 678.0, 677.0, 679.0, 678.0, 677.0, 679.0, 680.0, 680.0, 679.0, 678.0, 681.0, 678.0, 680.0, 681.0, 678.0, 679.0, 680.0, 679.0, 679.0, 678.0, 679.0, 680.0, 679.0, 679.0, 678.0, 678.0, 677.0, 678.0, 679.0, 678.0, 679.0, 681.0, 680.0, 679.0, 679.0, 679.0, 677.0, 677.0, 678.0, 678.0, 678.0, 679.0, 677.0, 680.0, 678.0, 677.0, 677.0, 678.0, 677.0, 677.0, 677.0, 679.0, 681.0, 679.0, 680.0, 680.0, 679.0, 677.0, 679.0, 679.0, 678.0, 679.0, 676.0, 676.0, 678.0, 681.0, 678.0, 678.0, 678.0, 678.0, 677.0, 678.0, 679.0, 680.0, 678.0, 679.0, 678.0, 677.0, 679.0, 680.0, 677.0, 677.0, 678.0, 681.0, 682.0, 681.0, 678.0, 676.0, 676.0, 679.0, 676.0, 677.0, 680.0, 679.0, 679.0, 679.0, 680.0, 677.0, 678.0, 679.0, 679.0, 679.0, 679.0, 679.0, 678.0, 679.0, 681.0, 680.0, 678.0, 678.0, 680.0, 678.0, 676.0, 678.0, 678.0, 682.0, 679.0, 679.0, 679.0, 676.0, 678.0, 678.0, 679.0, 681.0, 681.0, 681.0, 681.0, 677.0, 678.0, 679.0, 678.0, 677.0, 676.0, 679.0, 677.0, 677.0, 678.0],
      "WindowWidth": [1476.0, 1471.0, 1471.0, 1466.0, 1465.0, 1475.0, 1468.0, 1465.0, 1464.0, 1466.0, 1465.0, 1467.0, 1460.0, 1466.0, 1468.0, 1472.0, 1469.0, 1473.0, 1470.0, 1470.0, 1468.0, 1464.0, 1470.0, 1472.0, 1466.0, 1466.0, 1463.0, 1463.0, 1465.0, 1466.0, 1468.0, 1475.0, 1473.0, 1474.0, 1471.0, 1469.0, 1468.0, 1468.0, 1476.0, 1473.0, 1465.0, 1463.0, 1470.0, 1469.0, 1472.0, 1466.0, 1468.0, 1468.0, 1470.0, 1470.0, 1466.0, 1471.0, 1472.0, 1469.0, 1466.0, 1469.0, 1471.0, 1465.0, 1467.0, 1467.0, 1471.0, 1474.0, 1473.0, 1472.0, 1470.0, 1463.0, 1464.0, 1467.0, 1471.0, 1473.0, 1465.0, 1467.0, 1467.0, 1464.0, 1468.0, 1475.0, 1471.0, 1471.0, 1476.0, 1465.0, 1470.0, 1466.0, 1469.0, 1470.0, 1465.0, 1465.0, 1468.0, 1466.0, 1466.0, 1465.0, 1475.0, 1471.0, 1467.0, 1463.0, 1466.0, 1474.0, 1473.0, 1471.0, 1473.0, 1468.0, 1466.0, 1466.0, 1469.0, 1468.0, 1465.0, 1469.0, 1472.0, 1471.0, 1469.0, 1467.0, 1475.0, 1467.0, 1472.0, 1474.0, 1468.0, 1470.0, 1472.0, 1471.0, 1469.0, 1466.0, 1471.0, 1471.0, 1470.0, 1470.0, 1466.0, 1468.0, 1466.0, 1468.0, 1471.0, 1468.0, 1469.0, 1474.0, 1473.0, 1470.0, 1471.0, 1470.0, 1466.0, 1464.0, 1466.0, 1467.0, 1468.0, 1470.0, 1465.0, 1471.0, 1467.0, 1464.0, 1465.0, 1467.0, 1464.0, 1465.0, 1464.0, 1470.0, 1475.0, 1471.0, 1472.0, 1473.0, 1469.0, 1466.0, 1470.0, 1469.0, 1466.0, 1470.0, 1463.0, 1463.0, 1467.0, 1474.0, 1468.0, 1467.0, 1468.0, 1466.0, 1464.0, 1467.0, 1469.0, 1474.0, 1469.0, 1470.0, 1467.0, 1464.0, 1469.0, 1472.0, 1463.0, 1465.0, 1467.0, 1474.0, 1477.0, 1475.0, 1468.0, 1460.0, 1462.0, 1470.0, 1462.0, 1464.0, 1471.0, 1468.0, 1470.0, 1469.0, 1472.0, 1465.0, 1466.0, 1471.0, 1469.0, 1471.0, 1471.0, 1470.0, 1468.0, 1470.0, 1476.0, 1473.0, 1466.0, 1467.0, 1473.0, 1466.0, 1463.0, 1467.0, 1467.0, 1477.0, 1471.0, 1470.0, 1469.0, 1462.0, 1467.0, 1467.0, 1469.0, 1474.0, 1474.0, 1475.0, 1474.0, 1465.0, 1466.0, 1469.0, 1468.0, 1465.0, 1462.0, 1469.0, 1464.0, 1464.0, 1468.0]
    },
    "slices": {}
  }
}