{
  "AcquisitionMatrixPE": 70,
  "AcquisitionNumber": 1,
  "AcquisitionTime": "15:41:56.990000",
  "BandwidthPerPixelPhaseEncode": 38.873,
  "BaseResolution": 70,
  "BodyPartExamined": "HEAD",
  "ConsistencyInfo": "N4_VE11B_LATEST_20150530",
  "ConversionSoftware": "dcm2niix",
  "ConversionSoftwareVersion": "v1.0.20190410  GCC6.3.0",
  "DerivedVendorReportedEchoSpacing": 0.000489996,
  "DeviceSerialNumber": "66088",
  "DwellTime": 2.9e-06,
  "EchoTime": 0.03,
  "EchoTrainLength": 53,
  "EffectiveEchoSpacing": 0.000367497,
  "FlipAngle": 90,
  "ImageOrientationPatientDICOM": [0.999292, 0.00503691, 0.0372854, 0.00872063, 0.933003, -0.359764],
  "ImageType": [
    "ORIGINAL",
    "PRIMARY",
    "M",
    "ND",
    "NORM",
    "MOSAIC"
],
  "ImagingFrequency": 123.191,
  "InPlanePhaseEncodingDirectionDICOM": "COL",
  "InstitutionAddress": "Street_StreetNo_City_District_IR_ZIP",
  "InstitutionName": "NBML",
  "InstitutionalDepartmentName": "Department",
  "MRAcquisitionType": "2D",
  "MagneticFieldStrength": 3,
  "Manufacturer": "Siemens",
  "ManufacturersModelName": "Prisma",
  "Modality": "MR",
  "ParallelReductionFactorInPlane": 2,
  "PartialFourier": 1,
  "PatientPosition": "HFS",
  "PercentPhaseFOV": 100,
  "PhaseEncodingDirection": "j-",
  "PhaseEncodingSteps": 105,
  "PhaseOversampling": 0.5,
  "PhaseResolution": 1,
  "PixelBandwidth": 2465,
  "ProcedureStepDescription": "NBML_Project_P_96169_Ebrahiminiya-Khaliq",
  "ProtocolName": "ep2d_p2_Task_3.5_measurment:237",
  "PulseSequenceDetails": "%SiemensSeq%_ep2d_pace",
  "ReceiveCoilActiveElements": "HC1-7;NC1",
  "ReceiveCoilName": "HeadNeck_64",
  "ReconMatrixPE": 70,
  "RefLinesPE": 24,
  "RepetitionTime": 2,
  "SAR": 0.113225,
  "ScanOptions": "FS",
  "ScanningSequence": "EP",
  "SequenceName": "_epfid2d1_70",
  "SequenceVariant": "SK_OSP",
  "SeriesDescription": "ep2d_p2_Task_3.5_measurment:237",
  "SeriesNumber": 10,
  "ShimSetting": [2592, -4461, -3213, 339, 25, -218, -38, 12],
  "SliceThickness": 3.5,
  "SliceTiming": [0.99, 0, 1.0475, 0.0575, 1.105, 0.115, 1.165, 0.175, 1.2225, 0.2325, 1.28, 0.29, 1.34, 0.35, 1.3975, 0.4075, 1.455, 0.465, 1.515, 0.525, 1.5725, 0.5825, 1.63, 0.64, 1.6875, 0.6975, 1.7475, 0.7575, 1.805, 0.815, 1.8625, 0.8725, 1.9225, 0.9325],
  "SoftwareVersions": "syngo_MR_E11",
  "SpacingBetweenSlices": 4.025,
  "StationName": "AWP66088",
  "TaskName": "categorySelectivity",
  "TotalReadoutTime": 0.0253573,
  "TxRefAmp": 278.018,
  "dcmmeta_affine": [
    [-3.540348768234253, 0.030895953997969627, 0.14731276035308838, 123.65088653564453],
    [-0.017845066264271736, 3.305495500564575, -1.448331594467163, -85.1257095336914],
    [0.13209670782089233, 1.2745907306671143, 3.752500534057617, -78.9910659790039],
    [0.0, 0.0, 0.0, 1.0]
],
  "dcmmeta_reorient_transform": [
    [0.0, -1.0, 0.0, 69.0],
    [1.0, 0.0, 0.0, 0.0],
    [0.0, 0.0, 1.0, 0.0],
    [0.0, 0.0, 0.0, 1.0]
],
  "dcmmeta_shape": [70, 70, 34, 237],
  "dcmmeta_slice_dim": 2,
  "dcmmeta_version": 0.6,
  "global": {
    "const": {
      "AccessionNumber": "m.brz",
      "AcquisitionMatrix": [70, 0, 0, 70],
      "AngioFlag": "N",
      "BitsAllocated": 16,
      "BitsStored": 12,
      "BodyPartExamined": "HEAD",
      "Columns": 420,
      "EchoNumbers": 1,
      "EchoTime": 30.0,
      "EchoTrainLength": 53,
      "FlipAngle": 90.0,
      "HighBit": 11,
      "ImageOrientationPatient": [0.99929196505938, 0.00503691372068, 0.03728535996778, 0.00872063230176, 0.93300276664729, -0.3597635167729],
      "ImagePositionPatient": [-750.75052009797, -724.53808609399, 208.89215337076],
      "ImageType": [
        "ORIGINAL",
        "PRIMARY",
        "M",
        "ND",
        "NORM",
        "MOSAIC"
],
      "ImagedNucleus": "1H",
      "ImagingFrequency": 123.191154,
      "InPlanePhaseEncodingDirection": "COL",
      "MRAcquisitionType": "2D",
      "MagneticFieldStrength": 3.0,
      "Manufacturer": "SIEMENS",
      "ManufacturerModelName": "Prisma",
      "Modality": "MR",
      "NumberOfAverages": 1.0,
      "NumberOfPhaseEncodingSteps": 105,
      "PercentPhaseFieldOfView": 100.0,
      "PercentSampling": 100.0,
      "PerformedProcedureStepStartTime": "143102.179000",
      "PhotometricInterpretation": "MONOCHROME2",
      "PixelBandwidth": 2465.0,
      "PixelRepresentation": 0,
      "PixelSpacing": [3.542857170105, 3.542857170105],
      "ProtocolName": "ep2d_p2_Task_3.5_measurment:237",
      "RepetitionTime": 2000.0,
      "Rows": 420,
      "SAR": 0.11322529313423,
      "SamplesPerPixel": 1,
      "ScanOptions": "FS",
      "ScanningSequence": "EP",
      "SequenceName": "*epfid2d1_70",
      "SequenceVariant": [
        "SK",
        "OSP"
],
      "SeriesDescription": "ep2d_p2_Task_3.5_measurment:237",
      "SeriesNumber": 10,
      "SeriesTime": "154245.844000",
      "SliceLocation": -38.486559235788,
      "SliceThickness": 3.5,
      "SmallestImagePixelValue": 0,
      "SoftwareVersions": "syngo MR E11",
      "SpacingBetweenSlices": 4.0250000568774,
      "SpecificCharacterSet": "ISO_IR 100",
      "StudyID": "1",
      "StudyTime": "143102.118000",
      "TransmitCoilName": "Body",
      "VariableFlipAngleFlag": "N",
      "WindowCenterWidthExplanation": "Algo1",
      "dBdt": 0.0},
    "slices": {}
  },
  "time": {
    "samples": {
      "AcquisitionNumber": [1, 2, 3, 4, 5, 6, 7, 8, 9, 10, 11, 12, 13, 14, 15, 16, 17, 18, 19, 20, 21, 22, 23, 24, 25, 26, 27, 28, 29, 30, 31, 32, 33, 34, 35, 36, 37, 38, 39, 40, 41, 42, 43, 44, 45, 46, 47, 48, 49, 50, 51, 52, 53, 54, 55, 56, 57, 58, 59, 60, 61, 62, 63, 64, 65, 66, 67, 68, 69, 70, 71, 72, 73, 74, 75, 76, 77, 78, 79, 80, 81, 82, 83, 84, 85, 86, 87, 88, 89, 90, 91, 92, 93, 94, 95, 96, 97, 98, 99, 100, 101, 102, 103, 104, 105, 106, 107, 108, 109, 110, 111, 112, 113, 114, 115, 116, 117, 118, 119, 120, 121, 122, 123, 124, 125, 126, 127, 128, 129, 130, 131, 132, 133, 134, 135, 136, 137, 138, 139, 140, 141, 142, 143, 144, 145, 146, 147, 148, 149, 150, 151, 152, 153, 154, 155, 156, 157, 158, 159, 160, 161, 162, 163, 164, 165, 166, 167, 168, 169, 170, 171, 172, 173, 174, 175, 176, 177, 178, 179, 180, 181, 182, 183, 184, 185, 186, 187, 188, 189, 190, 191, 192, 193, 194, 195, 196, 197, 198, 199, 200, 201, 202, 203, 204, 205, 206, 207, 208, 209, 210, 211, 212, 213, 214, 215, 216, 217, 218, 219, 220, 221, 222, 223, 224, 225, 226, 227, 228, 229, 230, 231, 232, 233, 234, 235, 236, 237],
      "AcquisitionTime": ["154156.990000", "154158.990000", "154200.990000", "154202.990000", "154204.990000", "154206.990000", "154208.990000", "154210.990000", "154212.990000", "154214.990000", "154216.990000", "154218.990000", "154220.990000", "154222.990000", "154224.990000", "154226.990000", "154228.990000", "154230.990000", "154232.990000", "154234.990000", "154236.990000", "154238.990000", "154240.990000", "154242.990000", "154244.990000", "154246.990000", "154248.990000", "154250.990000", "154252.990000", "154254.990000", "154256.990000", "154258.990000", "154300.990000", "154302.990000", "154304.990000", "154306.990000", "154308.990000", "154310.990000", "154312.990000", "154314.990000", "154316.990000", "154318.990000", "154320.990000", "154322.990000", "154324.990000", "154326.990000", "154328.990000", "154330.990000", "154332.990000", "154334.990000", "154336.990000", "154338.990000", "154340.990000", "154342.990000", "154344.990000", "154346.990000", "154348.990000", "154350.990000", "154352.990000", "154354.990000", "154356.990000", "154358.990000", "154400.990000", "154402.990000", "154404.990000", "154406.990000", "154408.990000", "154410.990000", "154412.990000", "154414.990000", "154416.990000", "154418.990000", "154420.990000", "154422.990000", "154424.990000", "154426.990000", "154428.990000", "154430.990000", "154432.990000", "154434.990000", "154436.990000", "154438.990000", "154440.990000", "154442.990000", "154444.990000", "154446.990000", "154448.990000", "154450.990000", "154452.990000", "154454.990000", "154456.990000", "154458.990000", "154500.990000", "154502.990000", "154504.990000", "154506.990000", "154508.990000", "154510.990000", "154512.990000", "154514.990000", "154516.990000", "154518.990000", "154520.990000", "154522.990000", "154524.990000", "154526.990000", "154528.990000", "154530.990000", "154532.990000", "154534.990000", "154536.990000", "154538.990000", "154540.990000", "154542.990000", "154544.990000", "154546.990000", "154548.990000", "154550.990000", "154552.990000", "154554.990000", "154556.990000", "154558.990000", "154600.990000", "154602.990000", "154604.990000", "154606.990000", "154608.990000", "154610.990000", "154612.990000", "154614.990000", "154616.990000", "154618.990000", "154620.990000", "154622.990000", "154624.990000", "154626.990000", "154628.990000", "154630.990000", "154632.990000", "154634.990000", "154636.990000", "154638.990000", "154640.990000", "154642.990000", "154644.990000", "154646.990000", "154648.990000", "154650.990000", "154652.990000", "154654.990000", "154656.990000", "154658.990000", "154700.990000", "154702.990000", "154704.990000", "154706.990000", "154708.990000", "154710.990000", "154712.990000", "154714.990000", "154716.990000", "154718.990000", "154720.990000", "154722.990000", "154724.990000", "154726.990000", "154728.990000", "154730.990000", "154732.990000", "154734.990000", "154736.990000", "154738.990000", "154740.990000", "154742.990000", "154744.990000", "154746.990000", "154748.990000", "154750.990000", "154752.990000", "154754.990000", "154756.990000", "154758.990000", "154800.990000", "154802.990000", "154804.990000", "154806.990000", "154808.990000", "154810.990000", "154812.990000", "154814.990000", "154816.990000", "154818.990000", "154820.990000", "154822.990000", "154824.990000", "154826.990000", "154828.990000", "154830.990000", "154832.990000", "154834.990000", "154836.990000", "154838.990000", "154840.990000", "154842.990000", "154844.990000", "154846.990000", "154848.990000", "154850.990000", "154852.990000", "154854.990000", "154856.990000", "154858.990000", "154900.990000", "154902.990000", "154904.990000", "154906.990000", "154908.990000", "154910.990000", "154912.990000", "154914.990000", "154916.990000", "154918.990000", "154920.990000", "154922.990000", "154924.990000", "154926.990000", "154928.990000", "154930.990000", "154932.990000", "154934.990000", "154936.990000", "154938.990000", "154940.990000", "154942.990000", "154944.990000", "154946.990000", "154948.990000"],
      "ContentTime": ["154245.848000", "154245.852000", "154245.855000", "154245.859000", "154245.862000", "154245.865000", "154245.868000", "154245.872000", "154245.875000", "154245.878000", "154245.881000", "154245.884000", "154245.887000", "154245.891000", "154245.894000", "154245.897000", "154245.900000", "154245.903000", "154245.916000", "154245.919000", "154245.923000", "154245.926000", "154245.929000", "154245.932000", "154325.842000", "154325.845000", "154325.849000", "154325.852000", "154325.856000", "154325.859000", "154325.862000", "154325.865000", "154325.868000", "154325.872000", "154325.876000", "154325.879000", "154325.882000", "154325.885000", "154325.888000", "154325.897000", "154325.900000", "154325.904000", "154325.907000", "154325.910000", "154405.841000", "154405.843000", "154405.846000", "154405.848000", "154405.851000", "154405.853000", "154405.856000", "154405.858000", "154405.861000", "154405.863000", "154405.866000", "154405.868000", "154405.871000", "154405.873000", "154405.876000", "154405.878000", "154405.880000", "154405.883000", "154405.885000", "154405.888000", "154445.842000", "154445.845000", "154445.849000", "154445.852000", "154445.855000", "154445.859000", "154445.863000", "154445.867000", "154445.870000", "154445.874000", "154445.878000", "154445.882000", "154445.886000", "154445.889000", "154445.893000", "154445.897000", "154445.900000", "154445.904000", "154445.908000", "154445.912000", "154505.843000", "154505.845000", "154505.850000", "154505.852000", "154505.855000", "154505.857000", "154505.860000", "154505.862000", "154505.864000", "154505.867000", "154545.842000", "154545.846000", "154545.848000", "154545.851000", "154545.862000", "154545.865000", "154545.867000", "154545.878000", "154545.881000", "154545.884000", "154545.887000", "154545.889000", "154545.892000", "154545.895000", "154545.897000", "154545.900000", "154545.902000", "154545.905000", "154545.908000", "154545.910000", "154625.841000", "154625.843000", "154625.846000", "154625.849000", "154625.851000", "154625.854000", "154625.856000", "154625.859000", "154625.861000", "154625.864000", "154625.866000", "154625.869000", "154625.871000", "154625.874000", "154625.876000", "154625.879000", "154625.881000", "154625.884000", "154625.886000", "154625.889000", "154705.844000", "154705.847000", "154705.852000", "154705.854000", "154705.857000", "154705.859000", "154705.862000", "154705.865000", "154705.867000", "154705.870000", "154705.873000", "154705.875000", "154705.878000", "154705.880000", "154705.883000", "154705.885000", "154705.888000", "154705.890000", "154705.898000", "154705.901000", "154745.842000", "154745.846000", "154745.849000", "154745.852000", "154745.855000", "154745.859000", "154745.862000", "154745.865000", "154745.868000", "154745.871000", "154745.875000", "154745.878000", "154745.881000", "154745.884000", "154745.888000", "154745.891000", "154745.894000", "154745.897000", "154745.901000", "154745.904000", "154825.841000", "154825.844000", "154825.848000", "154825.851000", "154825.854000", "154825.857000", "154825.861000", "154825.864000", "154825.868000", "154825.871000", "154825.874000", "154825.877000", "154825.880000", "154825.884000", "154825.887000", "154825.899000", "154825.903000", "154825.906000", "154825.909000", "154825.912000", "154905.842000", "154905.846000", "154905.849000", "154905.851000", "154905.854000", "154905.856000", "154905.859000", "154905.862000", "154905.864000", "154905.867000", "154905.869000", "154905.872000", "154905.874000", "154905.877000", "154905.881000", "154905.884000", "154905.886000", "154905.889000", "154905.892000", "154905.894000", "154945.843000", "154945.847000", "154945.851000", "154945.854000", "154945.857000", "154945.860000", "154945.864000", "154945.867000", "154945.870000", "154945.873000", "154945.877000", "154945.880000", "154945.883000", "154945.887000", "154945.890000", "154945.893000", "154945.897000", "154945.900000", "154945.903000", "154945.906000", "154950.192000", "154950.195000", "154950.197000"],
      "InstanceCreationTime": ["154245.848000", "154245.852000", "154245.855000", "154245.859000", "154245.862000", "154245.865000", "154245.868000", "154245.872000", "154245.875000", "154245.878000", "154245.881000", "154245.884000", "154245.887000", "154245.891000", "154245.894000", "154245.897000", "154245.900000", "154245.903000", "154245.916000", "154245.919000", "154245.923000", "154245.926000", "154245.929000", "154245.932000", "154325.842000", "154325.845000", "154325.849000", "154325.852000", "154325.856000", "154325.859000", "154325.862000", "154325.865000", "154325.868000", "154325.872000", "154325.876000", "154325.879000", "154325.882000", "154325.885000", "154325.888000", "154325.897000", "154325.900000", "154325.904000", "154325.907000", "154325.910000", "154405.841000", "154405.843000", "154405.846000", "154405.848000", "154405.851000", "154405.853000", "154405.856000", "154405.858000", "154405.861000", "154405.863000", "154405.866000", "154405.868000", "154405.871000", "154405.873000", "154405.876000", "154405.878000", "154405.880000", "154405.883000", "154405.885000", "154405.888000", "154445.842000", "154445.845000", "154445.849000", "154445.852000", "154445.855000", "154445.859000", "154445.863000", "154445.867000", "154445.870000", "154445.874000", "154445.878000", "154445.882000", "154445.886000", "154445.889000", "154445.893000", "154445.897000", "154445.900000", "154445.904000", "154445.908000", "154445.912000", "154505.843000", "154505.845000", "154505.850000", "154505.852000", "154505.855000", "154505.857000", "154505.860000", "154505.862000", "154505.864000", "154505.867000", "154545.842000", "154545.846000", "154545.848000", "154545.851000", "154545.862000", "154545.865000", "154545.867000", "154545.878000", "154545.881000", "154545.884000", "154545.887000", "154545.889000", "154545.892000", "154545.895000", "154545.897000", "154545.900000", "154545.902000", "154545.905000", "154545.908000", "154545.910000", "154625.841000", "154625.843000", "154625.846000", "154625.849000", "154625.851000", "154625.854000", "154625.856000", "154625.859000", "154625.861000", "154625.864000", "154625.866000", "154625.869000", "154625.871000", "154625.874000", "154625.876000", "154625.879000", "154625.881000", "154625.884000", "154625.886000", "154625.889000", "154705.844000", "154705.847000", "154705.852000", "154705.854000", "154705.857000", "154705.859000", "154705.862000", "154705.865000", "154705.867000", "154705.870000", "154705.873000", "154705.875000", "154705.878000", "154705.880000", "154705.883000", "154705.885000", "154705.888000", "154705.890000", "154705.898000", "154705.901000", "154745.842000", "154745.846000", "154745.849000", "154745.852000", "154745.855000", "154745.859000", "154745.862000", "154745.865000", "154745.868000", "154745.871000", "154745.875000", "154745.878000", "154745.881000", "154745.884000", "154745.888000", "154745.891000", "154745.894000", "154745.897000", "154745.901000", "154745.904000", "154825.841000", "154825.844000", "154825.848000", "154825.851000", "154825.854000", "154825.857000", "154825.861000", "154825.864000", "154825.868000", "154825.871000", "154825.874000", "154825.877000", "154825.880000", "154825.884000", "154825.887000", "154825.899000", "154825.903000", "154825.906000", "154825.909000", "154825.912000", "154905.842000", "154905.846000", "154905.849000", "154905.851000", "154905.854000", "154905.856000", "154905.859000", "154905.862000", "154905.864000", "154905.867000", "154905.869000", "154905.872000", "154905.874000", "154905.877000", "154905.881000", "154905.884000", "154905.886000", "154905.889000", "154905.892000", "154905.894000", "154945.843000", "154945.847000", "154945.851000", "154945.854000", "154945.857000", "154945.860000", "154945.864000", "154945.867000", "154945.870000", "154945.873000", "154945.877000", "154945.880000", "154945.883000", "154945.887000", "154945.890000", "154945.893000", "154945.897000", "154945.900000", "154945.903000", "154945.906000", "154950.192000", "154950.195000", "154950.197000"],
      "InstanceNumber": [1, 2, 3, 4, 5, 6, 7, 8, 9, 10, 11, 12, 13, 14, 15, 16, 17, 18, 19, 20, 21, 22, 23, 24, 25, 26, 27, 28, 29, 30, 31, 32, 33, 34, 35, 36, 37, 38, 39, 40, 41, 42, 43, 44, 45, 46, 47, 48, 49, 50, 51, 52, 53, 54, 55, 56, 57, 58, 59, 60, 61, 62, 63, 64, 65, 66, 67, 68, 69, 70, 71, 72, 73, 74, 75, 76, 77, 78, 79, 80, 81, 82, 83, 84, 85, 86, 87, 88, 89, 90, 91, 92, 93, 94, 95, 96, 97, 98, 99, 100, 101, 102, 103, 104, 105, 106, 107, 108, 109, 110, 111, 112, 113, 114, 115, 116, 117, 118, 119, 120, 121, 122, 123, 124, 125, 126, 127, 128, 129, 130, 131, 132, 133, 134, 135, 136, 137, 138, 139, 140, 141, 142, 143, 144, 145, 146, 147, 148, 149, 150, 151, 152, 153, 154, 155, 156, 157, 158, 159, 160, 161, 162, 163, 164, 165, 166, 167, 168, 169, 170, 171, 172, 173, 174, 175, 176, 177, 178, 179, 180, 181, 182, 183, 184, 185, 186, 187, 188, 189, 190, 191, 192, 193, 194, 195, 196, 197, 198, 199, 200, 201, 202, 203, 204, 205, 206, 207, 208, 209, 210, 211, 212, 213, 214, 215, 216, 217, 218, 219, 220, 221, 222, 223, 224, 225, 226, 227, 228, 229, 230, 231, 232, 233, 234, 235, 236, 237],
      "LargestImagePixelValue": [1784, 2977, 2261, 2100, 2908, 2018, 2038, 2568, 1718, 2471, 1789, 1595, 2457, 2517, 2573, 1838, 1578, 2393, 1636, 1991, 2237, 1690, 2362, 1817, 2948, 1844, 1766, 1617, 2097, 1597, 2230, 1608, 2085, 2142, 2719, 2186, 1677, 2223, 2203, 2875, 1701, 1597, 2473, 1756, 1673, 1623, 2117, 3092, 1820, 1598, 1969, 2021, 1647, 1594, 2353, 1928, 3099, 2288, 2727, 1865, 1596, 1914, 2296, 1738, 1609, 1621, 2453, 1923, 1715, 1881, 2484, 1867, 1632, 1603, 2534, 2566, 1973, 2267, 2904, 1967, 1599, 2423, 1744, 2080, 1690, 3158, 1850, 2258, 1597, 2052, 1883, 1646, 2516, 1752, 2049, 1975, 2422, 1912, 1828, 2234, 2627, 1795, 1681, 1601, 2274, 2556, 1747, 1728, 1603, 1583, 2299, 2085, 3022, 2046, 1630, 1597, 2524, 1824, 1597, 2373, 1907, 1674, 2389, 1826, 1617, 2679, 2831, 2606, 1659, 2141, 3065, 1639, 1949, 1680, 1742, 2487, 1836, 1725, 2351, 1808, 1611, 2264, 1706, 1724, 1674, 3002, 2657, 1770, 1915, 2584, 1977, 1627, 2715, 1809, 2299, 1635, 2277, 1637, 2147, 1691, 2356, 1863, 1656, 2282, 1791, 1613, 2357, 1858, 1976, 3062, 1803, 1845, 2198, 1727, 2315, 1743, 2500, 1786, 1611, 2479, 1874, 1666, 2302, 1771, 1600, 2316, 1694, 2055, 1731, 1799, 1622, 2886, 2110, 2693, 2365, 1738, 1611, 2775, 1834, 1603, 2338, 1663, 2094, 1585, 2047, 1736, 1648, 2602, 1763, 2383, 1599, 1620, 2254, 2492, 2870, 1794, 1612, 2620, 1975, 1612, 2397, 1825, 1703, 1740, 1600, 1698, 2122, 2961, 2779, 2623, 1900, 3166, 1872, 1600, 2498, 2156, 3069],
      "WindowCenter": [681.0, 683.0, 682.0, 680.0, 682.0, 679.0, 679.0, 680.0, 678.0, 680.0, 678.0, 679.0, 681.0, 681.0, 681.0, 678.0, 676.0, 681.0, 678.0, 680.0, 680.0, 678.0, 680.0, 679.0, 681.0, 678.0, 678.0, 677.0, 681.0, 678.0, 680.0, 678.0, 681.0, 680.0, 680.0, 679.0, 678.0, 681.0, 680.0, 682.0, 678.0, 678.0, 681.0, 678.0, 679.0, 679.0, 680.0, 683.0, 679.0, 678.0, 679.0, 679.0, 678.0, 679.0, 683.0, 680.0, 683.0, 680.0, 681.0, 679.0, 677.0, 677.0, 680.0, 678.0, 678.0, 679.0, 681.0, 680.0, 679.0, 679.0, 681.0, 680.0, 679.0, 680.0, 683.0, 682.0, 680.0, 681.0, 682.0, 680.0, 678.0, 682.0, 680.0, 681.0, 679.0, 681.0, 678.0, 680.0, 678.0, 680.0, 679.0, 679.0, 682.0, 680.0, 680.0, 680.0, 682.0, 680.0, 679.0, 681.0, 682.0, 679.0, 678.0, 679.0, 681.0, 683.0, 678.0, 679.0, 680.0, 681.0, 682.0, 680.0, 681.0, 680.0, 678.0, 678.0, 682.0, 679.0, 678.0, 681.0, 681.0, 680.0, 682.0, 682.0, 681.0, 683.0, 683.0, 681.0, 679.0, 680.0, 681.0, 677.0, 680.0, 679.0, 680.0, 681.0, 679.0, 678.0, 681.0, 680.0, 678.0, 682.0, 681.0, 681.0, 680.0, 684.0, 683.0, 682.0, 681.0, 682.0, 680.0, 679.0, 682.0, 678.0, 680.0, 678.0, 681.0, 677.0, 680.0, 679.0, 681.0, 681.0, 680.0, 681.0, 679.0, 679.0, 681.0, 681.0, 681.0, 683.0, 680.0, 680.0, 682.0, 678.0, 681.0, 679.0, 681.0, 679.0, 680.0, 682.0, 680.0, 679.0, 682.0, 681.0, 680.0, 684.0, 681.0, 682.0, 682.0, 682.0, 681.0, 684.0, 681.0, 683.0, 681.0, 679.0, 679.0, 683.0, 680.0, 678.0, 681.0, 678.0, 680.0, 678.0, 681.0, 680.0, 679.0, 683.0, 679.0, 682.0, 679.0, 679.0, 682.0, 681.0, 682.0, 680.0, 679.0, 682.0, 680.0, 679.0, 682.0, 680.0, 679.0, 680.0, 681.0, 682.0, 682.0, 683.0, 683.0, 681.0, 679.0, 682.0, 678.0, 679.0, 682.0, 680.0, 682.0],
      "WindowWidth": [1476.0, 1483.0, 1478.0, 1474.0, 1479.0, 1472.0, 1472.0, 1474.0, 1468.0, 1473.0, 1468.0, 1470.0, 1477.0, 1476.0, 1475.0, 1468.0, 1464.0, 1477.0, 1469.0, 1473.0, 1474.0, 1469.0, 1475.0, 1471.0, 1477.0, 1469.0, 1467.0, 1466.0, 1476.0, 1469.0, 1474.0, 1469.0, 1476.0, 1473.0, 1474.0, 1471.0, 1469.0, 1477.0, 1474.0, 1478.0, 1469.0, 1469.0, 1476.0, 1470.0, 1470.0, 1470.0, 1475.0, 1482.0, 1470.0, 1469.0, 1472.0, 1472.0, 1469.0, 1470.0, 1481.0, 1474.0, 1480.0, 1474.0, 1476.0, 1470.0, 1465.0, 1467.0, 1473.0, 1469.0, 1468.0, 1470.0, 1476.0, 1473.0, 1471.0, 1470.0, 1475.0, 1472.0, 1472.0, 1473.0, 1482.0, 1479.0, 1474.0, 1475.0, 1478.0, 1472.0, 1468.0, 1478.0, 1473.0, 1476.0, 1471.0, 1478.0, 1467.0, 1472.0, 1467.0, 1473.0, 1471.0, 1471.0, 1479.0, 1472.0, 1475.0, 1475.0, 1480.0, 1474.0, 1472.0, 1475.0, 1478.0, 1471.0, 1469.0, 1471.0, 1477.0, 1480.0, 1469.0, 1471.0, 1473.0, 1476.0, 1480.0, 1474.0, 1477.0, 1472.0, 1468.0, 1469.0, 1480.0, 1471.0, 1468.0, 1478.0, 1476.0, 1472.0, 1479.0, 1478.0, 1475.0, 1481.0, 1480.0, 1477.0, 1470.0, 1475.0, 1478.0, 1466.0, 1473.0, 1472.0, 1472.0, 1478.0, 1472.0, 1470.0, 1477.0, 1473.0, 1469.0, 1478.0, 1476.0, 1477.0, 1475.0, 1484.0, 1480.0, 1479.0, 1475.0, 1479.0, 1474.0, 1470.0, 1480.0, 1468.0, 1474.0, 1467.0, 1475.0, 1467.0, 1474.0, 1471.0, 1476.0, 1477.0, 1472.0, 1475.0, 1470.0, 1471.0, 1479.0, 1476.0, 1477.0, 1482.0, 1473.0, 1474.0, 1478.0, 1470.0, 1476.0, 1470.0, 1476.0, 1471.0, 1472.0, 1479.0, 1473.0, 1472.0, 1478.0, 1476.0, 1475.0, 1483.0, 1476.0, 1479.0, 1477.0, 1480.0, 1476.0, 1483.0, 1476.0, 1480.0, 1477.0, 1472.0, 1471.0, 1480.0, 1472.0, 1469.0, 1475.0, 1468.0, 1475.0, 1469.0, 1477.0, 1474.0, 1471.0, 1481.0, 1471.0, 1478.0, 1471.0, 1471.0, 1479.0, 1477.0, 1479.0, 1473.0, 1471.0, 1480.0, 1473.0, 1471.0, 1480.0, 1473.0, 1472.0, 1472.0, 1475.0, 1478.0, 1479.0, 1481.0, 1480.0, 1477.0, 1471.0, 1478.0, 1469.0, 1471.0, 1479.0, 1473.0, 1478.0]
    },
    "slices": {}
  }
}