{
  "AcquisitionMatrixPE": 70,
  "AcquisitionNumber": 1,
  "AcquisitionTime": "14:39:15.230000",
  "BandwidthPerPixelPhaseEncode": 38.873,
  "BaseResolution": 70,
  "BodyPartExamined": "HEAD",
  "ConsistencyInfo": "N4_VE11B_LATEST_20150530",
  "ConversionSoftware": "dcm2niix",
  "ConversionSoftwareVersion": "v1.0.20190410  GCC6.3.0",
  "DerivedVendorReportedEchoSpacing": 0.000489996,
  "DeviceSerialNumber": "66088",
  "DwellTime": 2.9e-06,
  "EchoTime": 0.03,
  "EchoTrainLength": 53,
  "EffectiveEchoSpacing": 0.000367497,
  "FlipAngle": 90,
  "ImageOrientationPatientDICOM": [0.999292, 0.00503691, 0.0372854, 0.00872063, 0.933003, -0.359764],
  "ImageType": [
    "ORIGINAL",
    "PRIMARY",
    "M",
    "ND",
    "NORM",
    "MOSAIC"
],
  "ImagingFrequency": 123.191,
  "InPlanePhaseEncodingDirectionDICOM": "COL",
  "InstitutionAddress": "Street_StreetNo_City_District_IR_ZIP",
  "InstitutionName": "NBML",
  "InstitutionalDepartmentName": "Department",
  "MRAcquisitionType": "2D",
  "MagneticFieldStrength": 3,
  "Manufacturer": "Siemens",
  "ManufacturersModelName": "Prisma",
  "Modality": "MR",
  "ParallelReductionFactorInPlane": 2,
  "PartialFourier": 1,
  "PatientPosition": "HFS",
  "PercentPhaseFOV": 100,
  "PhaseEncodingDirection": "j-",
  "PhaseEncodingSteps": 105,
  "PhaseOversampling": 0.5,
  "PhaseResolution": 1,
  "PixelBandwidth": 2465,
  "ProcedureStepDescription": "NBML_Project_P_96169_Ebrahiminiya-Khaliq",
  "ProtocolName": "ep2d_p2_Task_3.5_measurment:237",
  "PulseSequenceDetails": "%SiemensSeq%_ep2d_pace",
  "ReceiveCoilActiveElements": "HC1-7;NC1",
  "ReceiveCoilName": "HeadNeck_64",
  "ReconMatrixPE": 70,
  "RefLinesPE": 24,
  "RepetitionTime": 2,
  "SAR": 0.113225,
  "ScanOptions": "FS",
  "ScanningSequence": "EP",
  "SequenceName": "_epfid2d1_70",
  "SequenceVariant": "SK_OSP",
  "SeriesDescription": "ep2d_p2_Task_3.5_measurment:237",
  "SeriesNumber": 3,
  "ShimSetting": [2592, -4461, -3213, 339, 25, -218, -38, 12],
  "SliceThickness": 3.5,
  "SliceTiming": [0.99, 0, 1.0475, 0.0575, 1.105, 0.115, 1.1625, 0.1725, 1.2225, 0.2325, 1.28, 0.29, 1.3375, 0.3475, 1.3975, 0.4075, 1.455, 0.465, 1.5125, 0.5225, 1.57, 0.58, 1.63, 0.64, 1.6875, 0.6975, 1.745, 0.755, 1.805, 0.815, 1.8625, 0.8725, 1.92, 0.93],
  "SoftwareVersions": "syngo_MR_E11",
  "SpacingBetweenSlices": 4.025,
  "StationName": "AWP66088",
  "TaskName": "categorySelectivity",
  "TotalReadoutTime": 0.0253573,
  "TxRefAmp": 278.018,
  "dcmmeta_affine": [
    [-3.540348768234253, 0.030895953997969627, 0.14731276035308838, 123.65088653564453],
    [-0.017845066264271736, 3.305495500564575, -1.448331594467163, -85.1257095336914],
    [0.13209670782089233, 1.2745907306671143, 3.752500534057617, -78.9910659790039],
    [0.0, 0.0, 0.0, 1.0]
],
  "dcmmeta_reorient_transform": [
    [0.0, -1.0, 0.0, 69.0],
    [1.0, 0.0, 0.0, 0.0],
    [0.0, 0.0, 1.0, 0.0],
    [0.0, 0.0, 0.0, 1.0]
],
  "dcmmeta_shape": [70, 70, 34, 237],
  "dcmmeta_slice_dim": 2,
  "dcmmeta_version": 0.6,
  "global": {
    "const": {
      "AccessionNumber": "m.brz",
      "AcquisitionMatrix": [70, 0, 0, 70],
      "AngioFlag": "N",
      "BitsAllocated": 16,
      "BitsStored": 12,
      "BodyPartExamined": "HEAD",
      "Columns": 420,
      "EchoNumbers": 1,
      "EchoTime": 30.0,
      "EchoTrainLength": 53,
      "FlipAngle": 90.0,
      "HighBit": 11,
      "ImageOrientationPatient": [0.99929196505938, 0.00503691372068, 0.03728535996778, 0.00872063230176, 0.93300276664729, -0.3597635167729],
      "ImagePositionPatient": [-750.75052009797, -724.53808609399, 208.89215337076],
      "ImageType": [
        "ORIGINAL",
        "PRIMARY",
        "M",
        "ND",
        "NORM",
        "MOSAIC"
],
      "ImagedNucleus": "1H",
      "ImagingFrequency": 123.19114,
      "InPlanePhaseEncodingDirection": "COL",
      "MRAcquisitionType": "2D",
      "MagneticFieldStrength": 3.0,
      "Manufacturer": "SIEMENS",
      "ManufacturerModelName": "Prisma",
      "Modality": "MR",
      "NumberOfAverages": 1.0,
      "NumberOfPhaseEncodingSteps": 105,
      "PercentPhaseFieldOfView": 100.0,
      "PercentSampling": 100.0,
      "PerformedProcedureStepStartTime": "143102.179000",
      "PhotometricInterpretation": "MONOCHROME2",
      "PixelBandwidth": 2465.0,
      "PixelRepresentation": 0,
      "PixelSpacing": [3.542857170105, 3.542857170105],
      "ProtocolName": "ep2d_p2_Task_3.5_measurment:237",
      "RepetitionTime": 2000.0,
      "Rows": 420,
      "SAR": 0.11322529313423,
      "SamplesPerPixel": 1,
      "ScanOptions": "FS",
      "ScanningSequence": "EP",
      "SequenceName": "*epfid2d1_70",
      "SequenceVariant": [
        "SK",
        "OSP"
],
      "SeriesDescription": "ep2d_p2_Task_3.5_measurment:237",
      "SeriesNumber": 3,
      "SeriesTime": "144003.394000",
      "SliceLocation": -38.486559235788,
      "SliceThickness": 3.5,
      "SmallestImagePixelValue": 0,
      "SoftwareVersions": "syngo MR E11",
      "SpacingBetweenSlices": 4.0250000568774,
      "SpecificCharacterSet": "ISO_IR 100",
      "StudyID": "1",
      "StudyTime": "143102.118000",
      "TransmitCoilName": "Body",
      "VariableFlipAngleFlag": "N",
      "WindowCenterWidthExplanation": "Algo1",
      "dBdt": 0.0},
    "slices": {}
  },
  "time": {
    "samples": {
      "AcquisitionNumber": [1, 2, 3, 4, 5, 6, 7, 8, 9, 10, 11, 12, 13, 14, 15, 16, 17, 18, 19, 20, 21, 22, 23, 24, 25, 26, 27, 28, 29, 30, 31, 32, 33, 34, 35, 36, 37, 38, 39, 40, 41, 42, 43, 44, 45, 46, 47, 48, 49, 50, 51, 52, 53, 54, 55, 56, 57, 58, 59, 60, 61, 62, 63, 64, 65, 66, 67, 68, 69, 70, 71, 72, 73, 74, 75, 76, 77, 78, 79, 80, 81, 82, 83, 84, 85, 86, 87, 88, 89, 90, 91, 92, 93, 94, 95, 96, 97, 98, 99, 100, 101, 102, 103, 104, 105, 106, 107, 108, 109, 110, 111, 112, 113, 114, 115, 116, 117, 118, 119, 120, 121, 122, 123, 124, 125, 126, 127, 128, 129, 130, 131, 132, 133, 134, 135, 136, 137, 138, 139, 140, 141, 142, 143, 144, 145, 146, 147, 148, 149, 150, 151, 152, 153, 154, 155, 156, 157, 158, 159, 160, 161, 162, 163, 164, 165, 166, 167, 168, 169, 170, 171, 172, 173, 174, 175, 176, 177, 178, 179, 180, 181, 182, 183, 184, 185, 186, 187, 188, 189, 190, 191, 192, 193, 194, 195, 196, 197, 198, 199, 200, 201, 202, 203, 204, 205, 206, 207, 208, 209, 210, 211, 212, 213, 214, 215, 216, 217, 218, 219, 220, 221, 222, 223, 224, 225, 226, 227, 228, 229, 230, 231, 232, 233, 234, 235, 236, 237],
      "AcquisitionTime": ["143915.230000", "143917.230000", "143919.230000", "143921.230000", "143923.230000", "143925.230000", "143927.230000", "143929.230000", "143931.230000", "143933.230000", "143935.230000", "143937.230000", "143939.230000", "143941.230000", "143943.230000", "143945.230000", "143947.230000", "143949.230000", "143951.230000", "143953.230000", "143955.230000", "143957.230000", "143959.230000", "144001.230000", "144003.230000", "144005.230000", "144007.230000", "144009.230000", "144011.230000", "144013.230000", "144015.230000", "144017.230000", "144019.230000", "144021.230000", "144023.230000", "144025.230000", "144027.230000", "144029.230000", "144031.230000", "144033.230000", "144035.230000", "144037.230000", "144039.230000", "144041.230000", "144043.230000", "144045.230000", "144047.230000", "144049.230000", "144051.230000", "144053.230000", "144055.230000", "144057.230000", "144059.230000", "144101.230000", "144103.230000", "144105.230000", "144107.230000", "144109.230000", "144111.230000", "144113.230000", "144115.230000", "144117.230000", "144119.230000", "144121.230000", "144123.230000", "144125.230000", "144127.230000", "144129.230000", "144131.230000", "144133.230000", "144135.230000", "144137.230000", "144139.230000", "144141.230000", "144143.230000", "144145.230000", "144147.230000", "144149.230000", "144151.230000", "144153.230000", "144155.230000", "144157.230000", "144159.230000", "144201.230000", "144203.230000", "144205.230000", "144207.230000", "144209.230000", "144211.230000", "144213.230000", "144215.230000", "144217.230000", "144219.230000", "144221.230000", "144223.230000", "144225.230000", "144227.230000", "144229.230000", "144231.230000", "144233.230000", "144235.230000", "144237.230000", "144239.230000", "144241.230000", "144243.230000", "144245.230000", "144247.230000", "144249.230000", "144251.230000", "144253.230000", "144255.230000", "144257.230000", "144259.230000", "144301.230000", "144303.230000", "144305.230000", "144307.230000", "144309.230000", "144311.230000", "144313.230000", "144315.230000", "144317.230000", "144319.230000", "144321.230000", "144323.230000", "144325.230000", "144327.230000", "144329.230000", "144331.230000", "144333.230000", "144335.230000", "144337.230000", "144339.230000", "144341.230000", "144343.230000", "144345.230000", "144347.230000", "144349.230000", "144351.230000", "144353.230000", "144355.230000", "144357.230000", "144359.230000", "144401.230000", "144403.230000", "144405.230000", "144407.230000", "144409.230000", "144411.230000", "144413.230000", "144415.230000", "144417.230000", "144419.230000", "144421.230000", "144423.230000", "144425.230000", "144427.230000", "144429.230000", "144431.230000", "144433.230000", "144435.230000", "144437.230000", "144439.230000", "144441.230000", "144443.230000", "144445.230000", "144447.230000", "144449.230000", "144451.230000", "144453.230000", "144455.230000", "144457.230000", "144459.230000", "144501.230000", "144503.230000", "144505.230000", "144507.230000", "144509.230000", "144511.230000", "144513.230000", "144515.230000", "144517.230000", "144519.230000", "144521.230000", "144523.230000", "144525.230000", "144527.230000", "144529.230000", "144531.230000", "144533.230000", "144535.230000", "144537.230000", "144539.230000", "144541.230000", "144543.230000", "144545.230000", "144547.230000", "144549.230000", "144551.230000", "144553.230000", "144555.230000", "144557.230000", "144559.230000", "144601.230000", "144603.230000", "144605.230000", "144607.230000", "144609.230000", "144611.230000", "144613.230000", "144615.230000", "144617.230000", "144619.230000", "144621.230000", "144623.230000", "144625.230000", "144627.230000", "144629.230000", "144631.230000", "144633.230000", "144635.230000", "144637.230000", "144639.230000", "144641.230000", "144643.230000", "144645.230000", "144647.230000", "144649.230000", "144651.230000", "144653.230000", "144655.230000", "144657.230000", "144659.230000", "144701.230000", "144703.230000", "144705.230000", "144707.230000"],
      "ContentTime": ["144003.399000", "144003.403000", "144003.406000", "144003.409000", "144003.412000", "144003.416000", "144003.419000", "144003.422000", "144003.425000", "144003.428000", "144003.432000", "144003.435000", "144003.438000", "144003.441000", "144003.444000", "144003.448000", "144003.451000", "144003.454000", "144003.459000", "144003.464000", "144003.477000", "144003.480000", "144003.484000", "144003.493000", "144043.393000", "144043.395000", "144043.398000", "144043.401000", "144043.403000", "144043.406000", "144043.408000", "144043.411000", "144043.414000", "144043.416000", "144043.419000", "144043.422000", "144043.424000", "144043.427000", "144043.429000", "144043.432000", "144043.435000", "144043.438000", "144043.440000", "144043.443000", "144123.392000", "144123.395000", "144123.399000", "144123.402000", "144123.405000", "144123.408000", "144123.412000", "144123.415000", "144123.418000", "144123.421000", "144123.424000", "144123.427000", "144123.431000", "144123.434000", "144123.437000", "144123.440000", "144123.443000", "144123.446000", "144123.450000", "144123.453000", "144203.392000", "144203.395000", "144203.398000", "144203.402000", "144203.405000", "144203.408000", "144203.411000", "144203.414000", "144203.417000", "144203.421000", "144203.424000", "144203.427000", "144203.430000", "144203.434000", "144203.437000", "144203.440000", "144203.443000", "144203.447000", "144203.450000", "144203.453000", "144243.393000", "144243.396000", "144243.398000", "144243.401000", "144243.403000", "144243.406000", "144243.409000", "144243.411000", "144243.414000", "144243.416000", "144243.419000", "144243.421000", "144243.424000", "144243.427000", "144243.429000", "144243.432000", "144243.435000", "144243.438000", "144243.440000", "144243.443000", "144323.392000", "144323.396000", "144323.399000", "144323.403000", "144323.406000", "144323.409000", "144323.412000", "144323.415000", "144323.419000", "144323.422000", "144323.425000", "144323.428000", "144323.432000", "144323.435000", "144323.438000", "144323.441000", "144323.446000", "144323.449000", "144323.452000", "144323.455000", "144403.392000", "144403.395000", "144403.398000", "144403.402000", "144403.405000", "144403.408000", "144403.411000", "144403.414000", "144403.417000", "144403.421000", "144403.424000", "144403.427000", "144403.430000", "144403.434000", "144403.437000", "144403.440000", "144403.443000", "144403.447000", "144403.450000", "144403.453000", "144443.392000", "144443.395000", "144443.397000", "144443.400000", "144443.402000", "144443.405000", "144443.408000", "144443.410000", "144443.413000", "144443.415000", "144443.418000", "144443.421000", "144443.423000", "144443.426000", "144443.429000", "144443.431000", "144443.434000", "144443.436000", "144443.439000", "144443.442000", "144503.394000", "144503.398000", "144503.401000", "144503.404000", "144503.408000", "144503.411000", "144503.414000", "144503.418000", "144503.421000", "144503.424000", "144543.392000", "144543.395000", "144543.413000", "144543.416000", "144543.418000", "144543.421000", "144543.423000", "144543.426000", "144543.428000", "144543.431000", "144543.434000", "144543.436000", "144543.439000", "144543.448000", "144543.450000", "144543.453000", "144543.455000", "144543.458000", "144543.461000", "144543.463000", "144623.392000", "144623.395000", "144623.397000", "144623.400000", "144623.402000", "144623.405000", "144623.407000", "144623.409000", "144623.418000", "144623.420000", "144623.423000", "144623.425000", "144623.428000", "144623.430000", "144623.433000", "144623.435000", "144623.438000", "144623.440000", "144623.443000", "144623.445000", "144703.393000", "144703.396000", "144703.400000", "144703.403000", "144703.406000", "144703.409000", "144703.413000", "144703.416000", "144703.419000", "144703.423000", "144703.426000", "144703.429000", "144703.433000", "144703.436000", "144703.439000", "144703.442000", "144703.446000", "144703.449000", "144703.452000", "144703.455000", "144708.575000", "144708.580000", "144708.583000"],
      "InstanceCreationTime": ["144003.399000", "144003.403000", "144003.406000", "144003.409000", "144003.412000", "144003.416000", "144003.419000", "144003.422000", "144003.425000", "144003.428000", "144003.432000", "144003.435000", "144003.438000", "144003.441000", "144003.444000", "144003.448000", "144003.451000", "144003.454000", "144003.459000", "144003.464000", "144003.477000", "144003.480000", "144003.484000", "144003.493000", "144043.393000", "144043.395000", "144043.398000", "144043.401000", "144043.403000", "144043.406000", "144043.408000", "144043.411000", "144043.414000", "144043.416000", "144043.419000", "144043.422000", "144043.424000", "144043.427000", "144043.429000", "144043.432000", "144043.435000", "144043.438000", "144043.440000", "144043.443000", "144123.392000", "144123.395000", "144123.399000", "144123.402000", "144123.405000", "144123.408000", "144123.412000", "144123.415000", "144123.418000", "144123.421000", "144123.424000", "144123.427000", "144123.431000", "144123.434000", "144123.437000", "144123.440000", "144123.443000", "144123.446000", "144123.450000", "144123.453000", "144203.392000", "144203.395000", "144203.398000", "144203.402000", "144203.405000", "144203.408000", "144203.411000", "144203.414000", "144203.417000", "144203.421000", "144203.424000", "144203.427000", "144203.430000", "144203.434000", "144203.437000", "144203.440000", "144203.443000", "144203.447000", "144203.450000", "144203.453000", "144243.393000", "144243.396000", "144243.398000", "144243.401000", "144243.403000", "144243.406000", "144243.409000", "144243.411000", "144243.414000", "144243.416000", "144243.419000", "144243.421000", "144243.424000", "144243.427000", "144243.429000", "144243.432000", "144243.435000", "144243.438000", "144243.440000", "144243.443000", "144323.392000", "144323.396000", "144323.399000", "144323.403000", "144323.406000", "144323.409000", "144323.412000", "144323.415000", "144323.419000", "144323.422000", "144323.425000", "144323.428000", "144323.432000", "144323.435000", "144323.438000", "144323.441000", "144323.446000", "144323.449000", "144323.452000", "144323.455000", "144403.392000", "144403.395000", "144403.398000", "144403.402000", "144403.405000", "144403.408000", "144403.411000", "144403.414000", "144403.417000", "144403.421000", "144403.424000", "144403.427000", "144403.430000", "144403.434000", "144403.437000", "144403.440000", "144403.443000", "144403.447000", "144403.450000", "144403.453000", "144443.392000", "144443.395000", "144443.397000", "144443.400000", "144443.402000", "144443.405000", "144443.408000", "144443.410000", "144443.413000", "144443.415000", "144443.418000", "144443.421000", "144443.423000", "144443.426000", "144443.429000", "144443.431000", "144443.434000", "144443.436000", "144443.439000", "144443.442000", "144503.394000", "144503.398000", "144503.401000", "144503.404000", "144503.408000", "144503.411000", "144503.414000", "144503.418000", "144503.421000", "144503.424000", "144543.392000", "144543.395000", "144543.413000", "144543.416000", "144543.418000", "144543.421000", "144543.423000", "144543.426000", "144543.428000", "144543.431000", "144543.434000", "144543.436000", "144543.439000", "144543.448000", "144543.450000", "144543.453000", "144543.455000", "144543.458000", "144543.461000", "144543.463000", "144623.392000", "144623.395000", "144623.397000", "144623.400000", "144623.402000", "144623.405000", "144623.407000", "144623.409000", "144623.418000", "144623.420000", "144623.423000", "144623.425000", "144623.428000", "144623.430000", "144623.433000", "144623.435000", "144623.438000", "144623.440000", "144623.443000", "144623.445000", "144703.393000", "144703.396000", "144703.400000", "144703.403000", "144703.406000", "144703.409000", "144703.413000", "144703.416000", "144703.419000", "144703.423000", "144703.426000", "144703.429000", "144703.433000", "144703.436000", "144703.439000", "144703.442000", "144703.446000", "144703.449000", "144703.452000", "144703.455000", "144708.575000", "144708.580000", "144708.583000"],
      "InstanceNumber": [1, 2, 3, 4, 5, 6, 7, 8, 9, 10, 11, 12, 13, 14, 15, 16, 17, 18, 19, 20, 21, 22, 23, 24, 25, 26, 27, 28, 29, 30, 31, 32, 33, 34, 35, 36, 37, 38, 39, 40, 41, 42, 43, 44, 45, 46, 47, 48, 49, 50, 51, 52, 53, 54, 55, 56, 57, 58, 59, 60, 61, 62, 63, 64, 65, 66, 67, 68, 69, 70, 71, 72, 73, 74, 75, 76, 77, 78, 79, 80, 81, 82, 83, 84, 85, 86, 87, 88, 89, 90, 91, 92, 93, 94, 95, 96, 97, 98, 99, 100, 101, 102, 103, 104, 105, 106, 107, 108, 109, 110, 111, 112, 113, 114, 115, 116, 117, 118, 119, 120, 121, 122, 123, 124, 125, 126, 127, 128, 129, 130, 131, 132, 133, 134, 135, 136, 137, 138, 139, 140, 141, 142, 143, 144, 145, 146, 147, 148, 149, 150, 151, 152, 153, 154, 155, 156, 157, 158, 159, 160, 161, 162, 163, 164, 165, 166, 167, 168, 169, 170, 171, 172, 173, 174, 175, 176, 177, 178, 179, 180, 181, 182, 183, 184, 185, 186, 187, 188, 189, 190, 191, 192, 193, 194, 195, 196, 197, 198, 199, 200, 201, 202, 203, 204, 205, 206, 207, 208, 209, 210, 211, 212, 213, 214, 215, 216, 217, 218, 219, 220, 221, 222, 223, 224, 225, 226, 227, 228, 229, 230, 231, 232, 233, 234, 235, 236, 237],
      "LargestImagePixelValue": [2351, 2005, 1796, 1932, 1639, 1643, 2583, 2032, 2393, 2087, 1722, 2554, 1647, 2339, 2036, 1836, 2342, 2965, 2168, 2649, 1894, 2546, 1856, 2271, 2469, 1761, 1833, 1683, 1651, 2498, 1898, 2137, 2678, 2564, 2984, 1805, 2500, 2121, 1653, 1934, 1655, 1651, 1654, 2779, 1948, 1656, 2064, 2614, 1780, 1807, 2286, 2945, 2236, 1948, 2900, 2151, 1738, 2274, 1645, 1955, 1758, 2567, 2736, 1850, 2482, 1910, 3083, 2525, 1721, 1641, 1880, 2023, 2597, 2241, 1772, 1655, 2350, 2037, 1914, 2497, 2289, 1788, 2539, 1980, 2268, 1632, 2719, 2003, 1946, 1628, 3168, 2849, 1624, 1883, 2046, 2163, 1624, 2690, 1781, 1635, 2680, 2221, 1699, 2417, 1632, 1721, 2561, 2978, 1858, 2820, 1675, 1701, 1861, 2568, 2597, 1661, 1859, 1650, 1662, 1845, 2524, 2082, 2554, 1931, 1674, 2414, 2918, 1924, 1657, 2263, 2145, 1975, 2821, 1807, 1652, 1848, 3263, 2359, 1884, 1688, 2222, 1935, 1978, 2209, 1676, 2424, 1867, 1671, 2533, 2225, 1934, 2155, 1940, 2278, 2137, 1699, 1947, 1975, 1682, 1678, 2326, 1682, 1683, 1970, 1686, 2537, 1898, 2163, 2061, 1872, 2076, 2171, 2828, 1816, 1958, 1702, 2289, 3055, 2134, 1695, 2510, 1756, 2092, 2334, 1699, 1789, 1761, 2412, 2184, 1696, 2825, 1761, 1840, 2347, 2476, 1726, 1694, 2002, 2370, 1779, 1694, 1692, 2620, 2615, 1785, 1909, 2364, 1843, 1949, 2092, 2545, 1792, 2195, 2372, 1697, 2233, 2424, 2536, 1934, 1690, 1784, 2581, 2506, 2650, 2286, 2074, 2178, 2035, 1702, 2465, 2461, 1698, 1875, 1687, 1866, 2602, 2165],
      "WindowCenter": [680.0, 678.0, 678.0, 679.0, 678.0, 677.0, 681.0, 680.0, 680.0, 679.0, 678.0, 680.0, 677.0, 679.0, 679.0, 679.0, 680.0, 680.0, 679.0, 680.0, 679.0, 680.0, 679.0, 679.0, 679.0, 676.0, 677.0, 676.0, 677.0, 680.0, 680.0, 681.0, 682.0, 681.0, 681.0, 678.0, 680.0, 679.0, 678.0, 678.0, 677.0, 676.0, 677.0, 682.0, 679.0, 680.0, 682.0, 681.0, 678.0, 679.0, 681.0, 682.0, 681.0, 679.0, 681.0, 678.0, 677.0, 678.0, 677.0, 680.0, 679.0, 682.0, 680.0, 678.0, 679.0, 677.0, 681.0, 678.0, 676.0, 676.0, 678.0, 680.0, 680.0, 679.0, 677.0, 678.0, 681.0, 679.0, 679.0, 681.0, 679.0, 677.0, 680.0, 679.0, 679.0, 677.0, 681.0, 679.0, 678.0, 677.0, 682.0, 680.0, 676.0, 678.0, 679.0, 679.0, 676.0, 681.0, 677.0, 677.0, 681.0, 678.0, 677.0, 679.0, 678.0, 678.0, 681.0, 681.0, 678.0, 679.0, 677.0, 678.0, 679.0, 680.0, 679.0, 676.0, 677.0, 677.0, 677.0, 679.0, 681.0, 679.0, 681.0, 679.0, 678.0, 680.0, 680.0, 678.0, 677.0, 679.0, 678.0, 678.0, 679.0, 677.0, 678.0, 679.0, 681.0, 679.0, 678.0, 677.0, 679.0, 679.0, 679.0, 679.0, 677.0, 679.0, 678.0, 677.0, 681.0, 679.0, 678.0, 679.0, 678.0, 679.0, 677.0, 677.0, 679.0, 679.0, 678.0, 678.0, 681.0, 678.0, 677.0, 678.0, 677.0, 681.0, 678.0, 679.0, 680.0, 679.0, 679.0, 679.0, 680.0, 678.0, 680.0, 679.0, 680.0, 681.0, 679.0, 677.0, 679.0, 678.0, 679.0, 679.0, 677.0, 678.0, 678.0, 680.0, 679.0, 679.0, 681.0, 678.0, 677.0, 679.0, 679.0, 676.0, 676.0, 679.0, 680.0, 678.0, 677.0, 678.0, 681.0, 680.0, 677.0, 678.0, 680.0, 678.0, 678.0, 678.0, 679.0, 677.0, 679.0, 679.0, 678.0, 679.0, 680.0, 679.0, 678.0, 677.0, 680.0, 681.0, 680.0, 680.0, 678.0, 679.0, 679.0, 679.0, 677.0, 680.0, 680.0, 677.0, 678.0, 676.0, 678.0, 680.0, 679.0],
      "WindowWidth": [1473.0, 1468.0, 1469.0, 1471.0, 1467.0, 1466.0, 1476.0, 1472.0, 1472.0, 1469.0, 1467.0, 1474.0, 1465.0, 1471.0, 1470.0, 1469.0, 1472.0, 1474.0, 1469.0, 1472.0, 1470.0, 1475.0, 1470.0, 1471.0, 1470.0, 1463.0, 1465.0, 1464.0, 1466.0, 1474.0, 1473.0, 1475.0, 1478.0, 1477.0, 1477.0, 1467.0, 1474.0, 1471.0, 1467.0, 1469.0, 1464.0, 1463.0, 1466.0, 1477.0, 1471.0, 1472.0, 1477.0, 1477.0, 1468.0, 1470.0, 1476.0, 1478.0, 1474.0, 1470.0, 1476.0, 1469.0, 1465.0, 1469.0, 1465.0, 1473.0, 1471.0, 1477.0, 1474.0, 1467.0, 1471.0, 1466.0, 1475.0, 1468.0, 1463.0, 1464.0, 1468.0, 1472.0, 1474.0, 1470.0, 1466.0, 1467.0, 1475.0, 1471.0, 1470.0, 1474.0, 1470.0, 1466.0, 1473.0, 1469.0, 1470.0, 1465.0, 1474.0, 1469.0, 1469.0, 1465.0, 1477.0, 1473.0, 1462.0, 1466.0, 1469.0, 1470.0, 1463.0, 1474.0, 1466.0, 1465.0, 1475.0, 1468.0, 1464.0, 1471.0, 1466.0, 1468.0, 1474.0, 1475.0, 1466.0, 1470.0, 1465.0, 1468.0, 1469.0, 1473.0, 1470.0, 1461.0, 1464.0, 1464.0, 1466.0, 1470.0, 1476.0, 1471.0, 1474.0, 1470.0, 1467.0, 1474.0, 1473.0, 1468.0, 1465.0, 1470.0, 1467.0, 1466.0, 1471.0, 1466.0, 1467.0, 1470.0, 1475.0, 1470.0, 1468.0, 1465.0, 1470.0, 1468.0, 1469.0, 1471.0, 1464.0, 1470.0, 1466.0, 1464.0, 1474.0, 1470.0, 1468.0, 1470.0, 1467.0, 1469.0, 1465.0, 1466.0, 1470.0, 1469.0, 1466.0, 1466.0, 1474.0, 1466.0, 1464.0, 1468.0, 1465.0, 1474.0, 1467.0, 1471.0, 1471.0, 1469.0, 1470.0, 1470.0, 1472.0, 1467.0, 1471.0, 1469.0, 1474.0, 1476.0, 1469.0, 1465.0, 1470.0, 1465.0, 1468.0, 1469.0, 1464.0, 1467.0, 1468.0, 1473.0, 1471.0, 1468.0, 1476.0, 1467.0, 1465.0, 1469.0, 1469.0, 1462.0, 1462.0, 1469.0, 1473.0, 1467.0, 1465.0, 1466.0, 1474.0, 1474.0, 1465.0, 1467.0, 1471.0, 1467.0, 1468.0, 1467.0, 1471.0, 1464.0, 1468.0, 1470.0, 1466.0, 1471.0, 1472.0, 1471.0, 1466.0, 1466.0, 1472.0, 1476.0, 1474.0, 1472.0, 1468.0, 1469.0, 1469.0, 1469.0, 1463.0, 1471.0, 1471.0, 1463.0, 1467.0, 1463.0, 1467.0, 1473.0, 1469.0]
    },
    "slices": {}
  }
}