{
  "AcquisitionMatrixPE": 70,
  "AcquisitionNumber": 1,
  "AcquisitionTime": "15:24:5.132500",
  "BandwidthPerPixelPhaseEncode": 38.873,
  "BaseResolution": 70,
  "BodyPartExamined": "HEAD",
  "ConsistencyInfo": "N4_VE11B_LATEST_20150530",
  "ConversionSoftware": "dcm2niix",
  "ConversionSoftwareVersion": "v1.0.20190410  GCC6.3.0",
  "DerivedVendorReportedEchoSpacing": 0.000489996,
  "DeviceSerialNumber": "66088",
  "DwellTime": 2.9e-06,
  "EchoTime": 0.03,
  "EchoTrainLength": 53,
  "EffectiveEchoSpacing": 0.000367497,
  "FlipAngle": 90,
  "ImageOrientationPatientDICOM": [0.999292, 0.00503691, 0.0372854, 0.00872063, 0.933003, -0.359764],
  "ImageType": [
    "ORIGINAL",
    "PRIMARY",
    "M",
    "ND",
    "NORM",
    "MOSAIC"
],
  "ImagingFrequency": 123.191,
  "InPlanePhaseEncodingDirectionDICOM": "COL",
  "InstitutionAddress": "Street_StreetNo_City_District_IR_ZIP",
  "InstitutionName": "NBML",
  "InstitutionalDepartmentName": "Department",
  "MRAcquisitionType": "2D",
  "MagneticFieldStrength": 3,
  "Manufacturer": "Siemens",
  "ManufacturersModelName": "Prisma",
  "Modality": "MR",
  "ParallelReductionFactorInPlane": 2,
  "PartialFourier": 1,
  "PatientPosition": "HFS",
  "PercentPhaseFOV": 100,
  "PhaseEncodingDirection": "j-",
  "PhaseEncodingSteps": 105,
  "PhaseOversampling": 0.5,
  "PhaseResolution": 1,
  "PixelBandwidth": 2465,
  "ProcedureStepDescription": "NBML_Project_P_96169_Ebrahiminiya-Khaliq",
  "ProtocolName": "ep2d_p2_Task_3.5_measurment:237",
  "PulseSequenceDetails": "%SiemensSeq%_ep2d_pace",
  "ReceiveCoilActiveElements": "HC1-7;NC1",
  "ReceiveCoilName": "HeadNeck_64",
  "ReconMatrixPE": 70,
  "RefLinesPE": 24,
  "RepetitionTime": 2,
  "SAR": 0.113225,
  "ScanOptions": "FS",
  "ScanningSequence": "EP",
  "SequenceName": "_epfid2d1_70",
  "SequenceVariant": "SK_OSP",
  "SeriesDescription": "ep2d_p2_Task_3.5_measurment:237",
  "SeriesNumber": 8,
  "ShimSetting": [2592, -4461, -3213, 339, 25, -218, -38, 12],
  "SliceThickness": 3.5,
  "SliceTiming": [0.99, 0, 1.05, 0.06, 1.1075, 0.1175, 1.165, 0.175, 1.225, 0.235, 1.2825, 0.2925, 1.34, 0.35, 1.3975, 0.4075, 1.4575, 0.4675, 1.515, 0.525, 1.5725, 0.5825, 1.6325, 0.6425, 1.69, 0.7, 1.7475, 0.7575, 1.805, 0.8175, 1.865, 0.875, 1.9225, 0.9325],
  "SoftwareVersions": "syngo_MR_E11",
  "SpacingBetweenSlices": 4.025,
  "StationName": "AWP66088",
  "TaskName": "categorySelectivity",
  "TotalReadoutTime": 0.0253573,
  "TxRefAmp": 278.018,
  "dcmmeta_affine": [
    [-3.540348768234253, 0.030895953997969627, 0.14731276035308838, 123.65088653564453],
    [-0.017845066264271736, 3.305495500564575, -1.448331594467163, -85.1257095336914],
    [0.13209670782089233, 1.2745907306671143, 3.752500534057617, -78.9910659790039],
    [0.0, 0.0, 0.0, 1.0]
],
  "dcmmeta_reorient_transform": [
    [0.0, -1.0, 0.0, 69.0],
    [1.0, 0.0, 0.0, 0.0],
    [0.0, 0.0, 1.0, 0.0],
    [0.0, 0.0, 0.0, 1.0]
],
  "dcmmeta_shape": [70, 70, 34, 237],
  "dcmmeta_slice_dim": 2,
  "dcmmeta_version": 0.6,
  "global": {
    "const": {
      "AccessionNumber": "m.brz",
      "AcquisitionMatrix": [70, 0, 0, 70],
      "AngioFlag": "N",
      "BitsAllocated": 16,
      "BitsStored": 12,
      "BodyPartExamined": "HEAD",
      "Columns": 420,
      "EchoNumbers": 1,
      "EchoTime": 30.0,
      "EchoTrainLength": 53,
      "FlipAngle": 90.0,
      "HighBit": 11,
      "ImageOrientationPatient": [0.99929196505938, 0.00503691372068, 0.03728535996778, 0.00872063230176, 0.93300276664729, -0.3597635167729],
      "ImagePositionPatient": [-750.75052009797, -724.53808609399, 208.89215337076],
      "ImageType": [
        "ORIGINAL",
        "PRIMARY",
        "M",
        "ND",
        "NORM",
        "MOSAIC"
],
      "ImagedNucleus": "1H",
      "ImagingFrequency": 123.191154,
      "InPlanePhaseEncodingDirection": "COL",
      "MRAcquisitionType": "2D",
      "MagneticFieldStrength": 3.0,
      "Manufacturer": "SIEMENS",
      "ManufacturerModelName": "Prisma",
      "Modality": "MR",
      "NumberOfAverages": 1.0,
      "NumberOfPhaseEncodingSteps": 105,
      "PercentPhaseFieldOfView": 100.0,
      "PercentSampling": 100.0,
      "PerformedProcedureStepStartTime": "143102.179000",
      "PhotometricInterpretation": "MONOCHROME2",
      "PixelBandwidth": 2465.0,
      "PixelRepresentation": 0,
      "PixelSpacing": [3.542857170105, 3.542857170105],
      "ProtocolName": "ep2d_p2_Task_3.5_measurment:237",
      "RepetitionTime": 2000.0,
      "Rows": 420,
      "SAR": 0.11322529313423,
      "SamplesPerPixel": 1,
      "ScanOptions": "FS",
      "ScanningSequence": "EP",
      "SequenceName": "*epfid2d1_70",
      "SequenceVariant": [
        "SK",
        "OSP"
],
      "SeriesDescription": "ep2d_p2_Task_3.5_measurment:237",
      "SeriesNumber": 8,
      "SeriesTime": "152450.787000",
      "SliceLocation": -38.486559235788,
      "SliceThickness": 3.5,
      "SmallestImagePixelValue": 0,
      "SoftwareVersions": "syngo MR E11",
      "SpacingBetweenSlices": 4.0250000568774,
      "SpecificCharacterSet": "ISO_IR 100",
      "StudyID": "1",
      "StudyTime": "143102.118000",
      "TransmitCoilName": "Body",
      "VariableFlipAngleFlag": "N",
      "WindowCenterWidthExplanation": "Algo1",
      "dBdt": 0.0},
    "slices": {}
  },
  "time": {
    "samples": {
      "AcquisitionNumber": [1, 2, 3, 4, 5, 6, 7, 8, 9, 10, 11, 12, 13, 14, 15, 16, 17, 18, 19, 20, 21, 22, 23, 24, 25, 26, 27, 28, 29, 30, 31, 32, 33, 34, 35, 36, 37, 38, 39, 40, 41, 42, 43, 44, 45, 46, 47, 48, 49, 50, 51, 52, 53, 54, 55, 56, 57, 58, 59, 60, 61, 62, 63, 64, 65, 66, 67, 68, 69, 70, 71, 72, 73, 74, 75, 76, 77, 78, 79, 80, 81, 82, 83, 84, 85, 86, 87, 88, 89, 90, 91, 92, 93, 94, 95, 96, 97, 98, 99, 100, 101, 102, 103, 104, 105, 106, 107, 108, 109, 110, 111, 112, 113, 114, 115, 116, 117, 118, 119, 120, 121, 122, 123, 124, 125, 126, 127, 128, 129, 130, 131, 132, 133, 134, 135, 136, 137, 138, 139, 140, 141, 142, 143, 144, 145, 146, 147, 148, 149, 150, 151, 152, 153, 154, 155, 156, 157, 158, 159, 160, 161, 162, 163, 164, 165, 166, 167, 168, 169, 170, 171, 172, 173, 174, 175, 176, 177, 178, 179, 180, 181, 182, 183, 184, 185, 186, 187, 188, 189, 190, 191, 192, 193, 194, 195, 196, 197, 198, 199, 200, 201, 202, 203, 204, 205, 206, 207, 208, 209, 210, 211, 212, 213, 214, 215, 216, 217, 218, 219, 220, 221, 222, 223, 224, 225, 226, 227, 228, 229, 230, 231, 232, 233, 234, 235, 236, 237],
      "AcquisitionTime": ["152405.132500", "152407.132500", "152409.132500", "152411.132500", "152413.132500", "152415.132500", "152417.132500", "152419.132500", "152421.132500", "152423.132500", "152425.132500", "152427.132500", "152429.132500", "152431.132500", "152433.132500", "152435.132500", "152437.132500", "152439.132500", "152441.132500", "152443.132500", "152445.132500", "152447.132500", "152449.132500", "152451.132500", "152453.132500", "152455.132500", "152457.132500", "152459.132500", "152501.132500", "152503.132500", "152505.132500", "152507.132500", "152509.132500", "152511.132500", "152513.132500", "152515.132500", "152517.132500", "152519.132500", "152521.132500", "152523.132500", "152525.132500", "152527.132500", "152529.132500", "152531.132500", "152533.132500", "152535.132500", "152537.132500", "152539.132500", "152541.132500", "152543.132500", "152545.132500", "152547.132500", "152549.132500", "152551.132500", "152553.132500", "152555.132500", "152557.132500", "152559.132500", "152601.132500", "152603.132500", "152605.132500", "152607.132500", "152609.132500", "152611.132500", "152613.132500", "152615.132500", "152617.132500", "152619.132500", "152621.132500", "152623.132500", "152625.132500", "152627.132500", "152629.132500", "152631.132500", "152633.132500", "152635.132500", "152637.132500", "152639.132500", "152641.132500", "152643.132500", "152645.132500", "152647.132500", "152649.132500", "152651.132500", "152653.132500", "152655.132500", "152657.132500", "152659.132500", "152701.132500", "152703.132500", "152705.132500", "152707.132500", "152709.132500", "152711.132500", "152713.132500", "152715.132500", "152717.132500", "152719.132500", "152721.132500", "152723.132500", "152725.132500", "152727.132500", "152729.132500", "152731.132500", "152733.132500", "152735.132500", "152737.132500", "152739.132500", "152741.132500", "152743.132500", "152745.132500", "152747.132500", "152749.132500", "152751.132500", "152753.132500", "152755.132500", "152757.132500", "152759.132500", "152801.132500", "152803.132500", "152805.132500", "152807.132500", "152809.132500", "152811.132500", "152813.132500", "152815.132500", "152817.132500", "152819.132500", "152821.132500", "152823.132500", "152825.132500", "152827.132500", "152829.132500", "152831.132500", "152833.132500", "152835.132500", "152837.132500", "152839.132500", "152841.132500", "152843.132500", "152845.132500", "152847.132500", "152849.132500", "152851.132500", "152853.132500", "152855.132500", "152857.132500", "152859.132500", "152901.132500", "152903.132500", "152905.132500", "152907.132500", "152909.132500", "152911.132500", "152913.132500", "152915.132500", "152917.132500", "152919.132500", "152921.132500", "152923.132500", "152925.132500", "152927.132500", "152929.132500", "152931.132500", "152933.132500", "152935.132500", "152937.132500", "152939.132500", "152941.132500", "152943.132500", "152945.132500", "152947.132500", "152949.132500", "152951.132500", "152953.132500", "152955.132500", "152957.132500", "152959.132500", "153001.132500", "153003.132500", "153005.132500", "153007.132500", "153009.132500", "153011.132500", "153013.132500", "153015.132500", "153017.132500", "153019.132500", "153021.132500", "153023.132500", "153025.132500", "153027.132500", "153029.132500", "153031.132500", "153033.132500", "153035.132500", "153037.132500", "153039.132500", "153041.132500", "153043.132500", "153045.132500", "153047.132500", "153049.132500", "153051.132500", "153053.132500", "153055.132500", "153057.132500", "153059.132500", "153101.132500", "153103.132500", "153105.132500", "153107.132500", "153109.132500", "153111.132500", "153113.132500", "153115.132500", "153117.132500", "153119.132500", "153121.132500", "153123.132500", "153125.132500", "153127.132500", "153129.132500", "153131.132500", "153133.132500", "153135.132500", "153137.132500", "153139.132500", "153141.132500", "153143.132500", "153145.132500", "153147.132500", "153149.132500", "153151.132500", "153153.132500", "153155.132500", "153157.132500"],
      "ContentTime": ["152450.791000", "152450.804000", "152450.807000", "152450.811000", "152450.814000", "152450.817000", "152450.820000", "152450.823000", "152450.827000", "152450.830000", "152450.833000", "152450.836000", "152450.839000", "152450.843000", "152450.846000", "152450.849000", "152450.852000", "152450.855000", "152450.864000", "152450.867000", "152450.871000", "152450.874000", "152450.877000", "152510.785000", "152510.788000", "152510.791000", "152510.794000", "152510.796000", "152510.799000", "152510.802000", "152510.804000", "152510.806000", "152510.809000", "152550.786000", "152550.789000", "152550.793000", "152550.796000", "152550.799000", "152550.803000", "152550.806000", "152550.809000", "152550.813000", "152550.816000", "152550.819000", "152550.822000", "152550.825000", "152550.829000", "152550.832000", "152550.835000", "152550.838000", "152550.841000", "152550.845000", "152550.848000", "152630.786000", "152630.790000", "152630.793000", "152630.796000", "152630.799000", "152630.803000", "152630.806000", "152630.809000", "152630.813000", "152630.816000", "152630.819000", "152630.822000", "152630.825000", "152630.829000", "152630.840000", "152630.843000", "152630.847000", "152630.850000", "152630.853000", "152630.856000", "152710.785000", "152710.788000", "152710.790000", "152710.793000", "152710.795000", "152710.798000", "152710.801000", "152710.803000", "152710.806000", "152710.808000", "152710.817000", "152710.820000", "152710.822000", "152710.825000", "152710.827000", "152710.830000", "152710.833000", "152710.835000", "152710.838000", "152710.840000", "152750.786000", "152750.789000", "152750.801000", "152750.804000", "152750.808000", "152750.811000", "152750.815000", "152750.818000", "152750.821000", "152750.824000", "152750.827000", "152750.831000", "152750.834000", "152750.837000", "152750.840000", "152750.844000", "152750.847000", "152750.850000", "152750.853000", "152750.857000", "152830.786000", "152830.790000", "152830.793000", "152830.796000", "152830.800000", "152830.803000", "152830.806000", "152830.809000", "152830.812000", "152830.815000", "152830.824000", "152830.827000", "152830.830000", "152830.834000", "152830.837000", "152830.840000", "152830.844000", "152830.847000", "152830.850000", "152830.853000", "152910.786000", "152910.788000", "152910.791000", "152910.793000", "152910.796000", "152910.798000", "152910.801000", "152910.803000", "152910.806000", "152910.808000", "152910.811000", "152910.813000", "152910.815000", "152910.818000", "152910.820000", "152910.823000", "152910.825000", "152910.828000", "152910.830000", "152910.832000", "152950.785000", "152950.787000", "152950.790000", "152950.793000", "152950.795000", "152950.798000", "152950.801000", "152950.803000", "152950.806000", "152950.808000", "152950.811000", "152950.813000", "152950.816000", "152950.819000", "152950.821000", "152950.824000", "152950.826000", "152950.829000", "152950.832000", "152950.834000", "153030.786000", "153030.790000", "153030.793000", "153030.796000", "153030.799000", "153030.803000", "153030.806000", "153030.809000", "153030.817000", "153030.820000", "153030.823000", "153030.826000", "153030.830000", "153030.833000", "153030.836000", "153030.840000", "153030.843000", "153030.846000", "153030.849000", "153030.853000", "153110.786000", "153110.789000", "153110.791000", "153110.806000", "153110.809000", "153110.812000", "153110.814000", "153110.817000", "153110.820000", "153110.822000", "153110.825000", "153110.827000", "153110.830000", "153110.833000", "153110.835000", "153110.838000", "153110.840000", "153110.843000", "153110.845000", "153110.848000", "153150.786000", "153150.789000", "153150.792000", "153150.795000", "153150.799000", "153150.802000", "153150.805000", "153150.808000", "153150.812000", "153150.815000", "153150.818000", "153150.822000", "153150.825000", "153150.828000", "153150.832000", "153150.835000", "153150.838000", "153150.842000", "153150.845000", "153150.848000", "153158.267000", "153158.270000", "153158.273000", "153158.276000"],
      "InstanceCreationTime": ["152450.791000", "152450.804000", "152450.807000", "152450.811000", "152450.814000", "152450.817000", "152450.820000", "152450.823000", "152450.827000", "152450.830000", "152450.833000", "152450.836000", "152450.839000", "152450.843000", "152450.846000", "152450.849000", "152450.852000", "152450.855000", "152450.864000", "152450.867000", "152450.871000", "152450.874000", "152450.877000", "152510.785000", "152510.788000", "152510.791000", "152510.794000", "152510.796000", "152510.799000", "152510.802000", "152510.804000", "152510.806000", "152510.809000", "152550.786000", "152550.789000", "152550.793000", "152550.796000", "152550.799000", "152550.803000", "152550.806000", "152550.809000", "152550.813000", "152550.816000", "152550.819000", "152550.822000", "152550.825000", "152550.829000", "152550.832000", "152550.835000", "152550.838000", "152550.841000", "152550.845000", "152550.848000", "152630.786000", "152630.790000", "152630.793000", "152630.796000", "152630.799000", "152630.803000", "152630.806000", "152630.809000", "152630.813000", "152630.816000", "152630.819000", "152630.822000", "152630.825000", "152630.829000", "152630.840000", "152630.843000", "152630.847000", "152630.850000", "152630.853000", "152630.856000", "152710.785000", "152710.788000", "152710.790000", "152710.793000", "152710.795000", "152710.798000", "152710.801000", "152710.803000", "152710.806000", "152710.808000", "152710.817000", "152710.820000", "152710.822000", "152710.825000", "152710.827000", "152710.830000", "152710.833000", "152710.835000", "152710.838000", "152710.840000", "152750.786000", "152750.789000", "152750.801000", "152750.804000", "152750.808000", "152750.811000", "152750.815000", "152750.818000", "152750.821000", "152750.824000", "152750.827000", "152750.831000", "152750.834000", "152750.837000", "152750.840000", "152750.844000", "152750.847000", "152750.850000", "152750.853000", "152750.857000", "152830.786000", "152830.790000", "152830.793000", "152830.796000", "152830.800000", "152830.803000", "152830.806000", "152830.809000", "152830.812000", "152830.815000", "152830.824000", "152830.827000", "152830.830000", "152830.834000", "152830.837000", "152830.840000", "152830.844000", "152830.847000", "152830.850000", "152830.853000", "152910.786000", "152910.788000", "152910.791000", "152910.793000", "152910.796000", "152910.798000", "152910.801000", "152910.803000", "152910.806000", "152910.808000", "152910.811000", "152910.813000", "152910.815000", "152910.818000", "152910.820000", "152910.823000", "152910.825000", "152910.828000", "152910.830000", "152910.832000", "152950.785000", "152950.787000", "152950.790000", "152950.793000", "152950.795000", "152950.798000", "152950.801000", "152950.803000", "152950.806000", "152950.808000", "152950.811000", "152950.813000", "152950.816000", "152950.819000", "152950.821000", "152950.824000", "152950.826000", "152950.829000", "152950.832000", "152950.834000", "153030.786000", "153030.790000", "153030.793000", "153030.796000", "153030.799000", "153030.803000", "153030.806000", "153030.809000", "153030.817000", "153030.820000", "153030.823000", "153030.826000", "153030.830000", "153030.833000", "153030.836000", "153030.840000", "153030.843000", "153030.846000", "153030.849000", "153030.853000", "153110.786000", "153110.789000", "153110.791000", "153110.806000", "153110.809000", "153110.812000", "153110.814000", "153110.817000", "153110.820000", "153110.822000", "153110.825000", "153110.827000", "153110.830000", "153110.833000", "153110.835000", "153110.838000", "153110.840000", "153110.843000", "153110.845000", "153110.848000", "153150.786000", "153150.789000", "153150.792000", "153150.795000", "153150.799000", "153150.802000", "153150.805000", "153150.808000", "153150.812000", "153150.815000", "153150.818000", "153150.822000", "153150.825000", "153150.828000", "153150.832000", "153150.835000", "153150.838000", "153150.842000", "153150.845000", "153150.848000", "153158.267000", "153158.270000", "153158.273000", "153158.276000"],
      "InstanceNumber": [1, 2, 3, 4, 5, 6, 7, 8, 9, 10, 11, 12, 13, 14, 15, 16, 17, 18, 19, 20, 21, 22, 23, 24, 25, 26, 27, 28, 29, 30, 31, 32, 33, 34, 35, 36, 37, 38, 39, 40, 41, 42, 43, 44, 45, 46, 47, 48, 49, 50, 51, 52, 53, 54, 55, 56, 57, 58, 59, 60, 61, 62, 63, 64, 65, 66, 67, 68, 69, 70, 71, 72, 73, 74, 75, 76, 77, 78, 79, 80, 81, 82, 83, 84, 85, 86, 87, 88, 89, 90, 91, 92, 93, 94, 95, 96, 97, 98, 99, 100, 101, 102, 103, 104, 105, 106, 107, 108, 109, 110, 111, 112, 113, 114, 115, 116, 117, 118, 119, 120, 121, 122, 123, 124, 125, 126, 127, 128, 129, 130, 131, 132, 133, 134, 135, 136, 137, 138, 139, 140, 141, 142, 143, 144, 145, 146, 147, 148, 149, 150, 151, 152, 153, 154, 155, 156, 157, 158, 159, 160, 161, 162, 163, 164, 165, 166, 167, 168, 169, 170, 171, 172, 173, 174, 175, 176, 177, 178, 179, 180, 181, 182, 183, 184, 185, 186, 187, 188, 189, 190, 191, 192, 193, 194, 195, 196, 197, 198, 199, 200, 201, 202, 203, 204, 205, 206, 207, 208, 209, 210, 211, 212, 213, 214, 215, 216, 217, 218, 219, 220, 221, 222, 223, 224, 225, 226, 227, 228, 229, 230, 231, 232, 233, 234, 235, 236, 237],
      "LargestImagePixelValue": [3306, 2064, 2021, 2181, 1697, 1732, 3215, 1972, 1626, 2515, 2062, 1700, 2115, 1638, 1947, 1721, 1634, 1756, 2012, 1636, 2051, 1810, 2981, 1938, 2873, 1825, 3040, 1774, 2113, 1619, 2191, 1769, 1854, 1740, 2226, 1712, 1616, 2025, 1678, 1989, 1613, 1975, 1616, 1604, 2415, 1973, 3143, 1711, 2257, 1858, 2715, 1772, 1911, 1619, 2080, 1594, 2016, 1882, 1672, 2316, 1802, 2208, 1652, 1899, 1654, 1775, 1920, 1665, 2859, 1612, 1767, 1736, 1623, 1607, 2234, 1772, 1976, 1686, 1745, 2050, 1656, 2366, 1810, 1681, 1884, 1605, 2374, 1901, 1666, 2382, 1764, 1607, 2166, 1948, 1939, 1612, 2530, 2885, 1793, 1684, 2246, 1926, 1610, 1991, 1803, 1605, 1624, 2493, 1648, 1606, 2420, 1617, 2706, 1808, 1678, 1900, 1609, 1736, 2806, 1742, 1623, 2429, 1929, 1624, 1676, 2124, 2074, 1895, 1610, 2218, 1655, 1601, 1798, 2031, 2524, 2848, 1665, 1707, 2844, 1868, 1607, 2171, 1731, 1768, 1943, 1719, 2264, 1688, 1894, 1857, 2435, 2009, 1651, 1613, 2541, 1835, 2547, 1720, 1901, 1671, 1609, 2093, 1747, 1645, 2260, 1742, 1619, 1612, 2644, 1722, 2770, 2228, 1927, 1630, 2353, 1808, 1673, 1977, 1906, 1609, 2261, 1746, 2126, 1691, 2140, 1616, 2434, 2891, 2777, 1710, 1615, 2271, 1658, 1667, 1634, 1614, 1615, 2235, 1681, 1652, 1741, 1662, 2422, 1705, 1632, 2361, 1682, 1703, 2197, 2141, 1830, 1648, 1631, 1619, 1880, 2702, 1802, 1658, 1848, 1642, 1616, 2174, 1620, 1617, 2619, 1766, 1630, 1806, 1624, 2111, 1626, 1657, 2167, 1795, 1621, 2194, 1723],
      "WindowCenter": [683.0, 679.0, 679.0, 680.0, 678.0, 678.0, 682.0, 678.0, 676.0, 679.0, 678.0, 676.0, 679.0, 678.0, 679.0, 677.0, 677.0, 678.0, 678.0, 677.0, 681.0, 680.0, 682.0, 679.0, 682.0, 678.0, 681.0, 678.0, 680.0, 677.0, 680.0, 678.0, 678.0, 678.0, 678.0, 678.0, 677.0, 678.0, 677.0, 679.0, 677.0, 678.0, 678.0, 679.0, 682.0, 680.0, 682.0, 678.0, 681.0, 681.0, 682.0, 678.0, 678.0, 677.0, 680.0, 678.0, 679.0, 679.0, 678.0, 681.0, 679.0, 681.0, 678.0, 680.0, 678.0, 678.0, 680.0, 678.0, 681.0, 678.0, 679.0, 678.0, 679.0, 678.0, 682.0, 679.0, 680.0, 679.0, 679.0, 679.0, 677.0, 680.0, 679.0, 678.0, 679.0, 678.0, 679.0, 679.0, 679.0, 681.0, 679.0, 680.0, 682.0, 680.0, 680.0, 679.0, 682.0, 681.0, 679.0, 678.0, 680.0, 679.0, 679.0, 680.0, 679.0, 679.0, 678.0, 682.0, 679.0, 679.0, 682.0, 679.0, 681.0, 678.0, 677.0, 681.0, 679.0, 679.0, 682.0, 679.0, 679.0, 681.0, 679.0, 677.0, 679.0, 680.0, 680.0, 680.0, 677.0, 680.0, 678.0, 678.0, 679.0, 680.0, 682.0, 682.0, 678.0, 679.0, 682.0, 678.0, 678.0, 681.0, 679.0, 679.0, 680.0, 680.0, 681.0, 679.0, 679.0, 679.0, 680.0, 679.0, 678.0, 679.0, 682.0, 679.0, 681.0, 678.0, 679.0, 678.0, 677.0, 680.0, 680.0, 679.0, 681.0, 679.0, 679.0, 681.0, 683.0, 679.0, 682.0, 679.0, 680.0, 678.0, 681.0, 679.0, 678.0, 679.0, 679.0, 678.0, 682.0, 680.0, 681.0, 681.0, 681.0, 678.0, 681.0, 680.0, 679.0, 675.0, 675.0, 679.0, 678.0, 679.0, 679.0, 679.0, 680.0, 681.0, 679.0, 679.0, 680.0, 680.0, 681.0, 679.0, 679.0, 682.0, 679.0, 679.0, 681.0, 680.0, 679.0, 679.0, 678.0, 679.0, 680.0, 682.0, 680.0, 679.0, 679.0, 679.0, 679.0, 680.0, 679.0, 679.0, 682.0, 680.0, 680.0, 679.0, 679.0, 681.0, 680.0, 680.0, 682.0, 681.0, 678.0, 681.0, 679.0],
      "WindowWidth": [1483.0, 1472.0, 1470.0, 1473.0, 1469.0, 1468.0, 1478.0, 1468.0, 1462.0, 1471.0, 1468.0, 1464.0, 1470.0, 1467.0, 1471.0, 1466.0, 1465.0, 1466.0, 1468.0, 1466.0, 1476.0, 1473.0, 1479.0, 1471.0, 1479.0, 1469.0, 1476.0, 1468.0, 1473.0, 1466.0, 1472.0, 1468.0, 1469.0, 1467.0, 1469.0, 1467.0, 1465.0, 1470.0, 1466.0, 1471.0, 1466.0, 1469.0, 1468.0, 1470.0, 1480.0, 1473.0, 1480.0, 1468.0, 1476.0, 1475.0, 1479.0, 1468.0, 1469.0, 1466.0, 1473.0, 1468.0, 1471.0, 1471.0, 1469.0, 1477.0, 1472.0, 1475.0, 1469.0, 1473.0, 1468.0, 1469.0, 1474.0, 1469.0, 1477.0, 1467.0, 1471.0, 1470.0, 1470.0, 1469.0, 1478.0, 1471.0, 1473.0, 1470.0, 1470.0, 1471.0, 1466.0, 1473.0, 1470.0, 1468.0, 1472.0, 1468.0, 1473.0, 1471.0, 1470.0, 1477.0, 1472.0, 1473.0, 1479.0, 1474.0, 1474.0, 1471.0, 1479.0, 1478.0, 1470.0, 1468.0, 1475.0, 1472.0, 1470.0, 1475.0, 1472.0, 1469.0, 1470.0, 1479.0, 1471.0, 1470.0, 1479.0, 1470.0, 1476.0, 1468.0, 1467.0, 1475.0, 1470.0, 1471.0, 1479.0, 1471.0, 1471.0, 1477.0, 1472.0, 1468.0, 1472.0, 1474.0, 1474.0, 1475.0, 1466.0, 1474.0, 1469.0, 1468.0, 1472.0, 1474.0, 1477.0, 1478.0, 1470.0, 1471.0, 1479.0, 1470.0, 1469.0, 1477.0, 1471.0, 1472.0, 1475.0, 1473.0, 1477.0, 1469.0, 1471.0, 1470.0, 1473.0, 1469.0, 1468.0, 1470.0, 1480.0, 1471.0, 1477.0, 1467.0, 1471.0, 1468.0, 1466.0, 1474.0, 1473.0, 1471.0, 1477.0, 1471.0, 1472.0, 1476.0, 1482.0, 1471.0, 1477.0, 1472.0, 1473.0, 1468.0, 1475.0, 1471.0, 1469.0, 1470.0, 1471.0, 1469.0, 1478.0, 1473.0, 1477.0, 1476.0, 1476.0, 1468.0, 1477.0, 1473.0, 1471.0, 1460.0, 1461.0, 1470.0, 1467.0, 1470.0, 1470.0, 1471.0, 1473.0, 1476.0, 1470.0, 1470.0, 1474.0, 1473.0, 1477.0, 1472.0, 1471.0, 1480.0, 1472.0, 1472.0, 1476.0, 1474.0, 1472.0, 1471.0, 1469.0, 1470.0, 1472.0, 1480.0, 1473.0, 1470.0, 1472.0, 1470.0, 1470.0, 1475.0, 1470.0, 1472.0, 1480.0, 1474.0, 1473.0, 1472.0, 1470.0, 1477.0, 1473.0, 1473.0, 1479.0, 1474.0, 1468.0, 1475.0, 1471.0]
    },
    "slices": {}
  }
}