{
  "AcquisitionMatrixPE": 70,
  "AcquisitionNumber": 1,
  "AcquisitionTime": "11:12:5.455000",
  "BandwidthPerPixelPhaseEncode": 38.873,
  "BaseResolution": 70,
  "BodyPartExamined": "HEAD",
  "ConsistencyInfo": "N4_VE11B_LATEST_20150530",
  "ConversionSoftware": "dcm2niix",
  "ConversionSoftwareVersion": "v1.0.20190410  GCC6.3.0",
  "DerivedVendorReportedEchoSpacing": 0.000489996,
  "DeviceSerialNumber": "66088",
  "DwellTime": 2.9e-06,
  "EchoTime": 0.03,
  "EchoTrainLength": 53,
  "EffectiveEchoSpacing": 0.000367497,
  "FlipAngle": 90,
  "ImageOrientationPatientDICOM": [0.997123, 0.0266479, 0.0709666, 0.00870171, 0.88975, -0.456365],
  "ImageType": [
    "ORIGINAL",
    "PRIMARY",
    "M",
    "ND",
    "NORM",
    "MOSAIC"
],
  "ImagingFrequency": 123.191,
  "InPlanePhaseEncodingDirectionDICOM": "COL",
  "InstitutionAddress": "Street_StreetNo_City_District_IR_ZIP",
  "InstitutionName": "NBML",
  "InstitutionalDepartmentName": "Department",
  "MRAcquisitionType": "2D",
  "MagneticFieldStrength": 3,
  "Manufacturer": "Siemens",
  "ManufacturersModelName": "Prisma",
  "Modality": "MR",
  "ParallelReductionFactorInPlane": 2,
  "PartialFourier": 1,
  "PatientPosition": "HFS",
  "PercentPhaseFOV": 100,
  "PhaseEncodingDirection": "j-",
  "PhaseEncodingSteps": 105,
  "PhaseOversampling": 0.5,
  "PhaseResolution": 1,
  "PixelBandwidth": 2465,
  "ProcedureStepDescription": "NBML_Project_Dr_Khaligh",
  "ProtocolName": "ep2d_p2_Task_3.5_measurment:237",
  "PulseSequenceDetails": "%SiemensSeq%_ep2d_pace",
  "ReceiveCoilActiveElements": "HC1-7;NC1",
  "ReceiveCoilName": "HeadNeck_64",
  "ReconMatrixPE": 70,
  "RefLinesPE": 24,
  "RepetitionTime": 2,
  "SAR": 0.0809912,
  "ScanOptions": "FS",
  "ScanningSequence": "EP",
  "SequenceName": "_epfid2d1_70",
  "SequenceVariant": "SK_OSP",
  "SeriesDescription": "ep2d_p2_Task_3.5_measurment:237",
  "SeriesNumber": 8,
  "ShimSetting": [2605, -4468, -3213, 359, -97, -39, -99, -2],
  "SliceThickness": 3.5,
  "SliceTiming": [0.99, 0, 1.0475, 0.0575, 1.105, 0.115, 1.165, 0.175, 1.2225, 0.2325, 1.28, 0.29, 1.34, 0.35, 1.3975, 0.4075, 1.455, 0.465, 1.5125, 0.525, 1.5725, 0.5825, 1.63, 0.64, 1.6875, 0.6975, 1.7475, 0.7575, 1.805, 0.815, 1.8625, 0.8725, 1.9225, 0.9325],
  "SoftwareVersions": "syngo_MR_E11",
  "SpacingBetweenSlices": 3.85,
  "StationName": "AWP66088",
  "TaskName": "categorySelectivity",
  "TotalReadoutTime": 0.0253573,
  "TxRefAmp": 228.389,
  "dcmmeta_affine": [
    [-3.532663106918335, 0.0308289285749197, 0.289919376373291, 118.12877655029297],
    [-0.09440983831882477, 3.1522574424743652, -1.754327416419983, -74.53201293945312],
    [0.2514245808124542, 1.6168361902236938, 3.4147887229919434, -97.92529296875],
    [0.0, 0.0, 0.0, 1.0]
],
  "dcmmeta_reorient_transform": [
    [0.0, -1.0, 0.0, 69.0],
    [1.0, 0.0, 0.0, 0.0],
    [0.0, 0.0, 1.0, 0.0],
    [0.0, 0.0, 0.0, 1.0]
],
  "dcmmeta_shape": [70, 70, 34, 237],
  "dcmmeta_slice_dim": 2,
  "dcmmeta_version": 0.6,
  "global": {
    "const": {
      "AccessionNumber": "97-06-15 MB",
      "AcquisitionMatrix": [70, 0, 0, 70],
      "AngioFlag": "N",
      "BitsAllocated": 16,
      "BitsStored": 12,
      "BodyPartExamined": "HEAD",
      "Columns": 420,
      "EchoNumbers": 1,
      "EchoTime": 30.0,
      "EchoTrainLength": 53,
      "FlipAngle": 90.0,
      "HighBit": 11,
      "ImageOrientationPatient": [0.99712267420458, 0.02664793776444, 0.07096661186792, 0.00870171358327, 0.889750091982, -0.4563650446723],
      "ImagePositionPatient": [-743.86709889624, -711.14054007082, 252.58343251909],
      "ImageType": [
        "ORIGINAL",
        "PRIMARY",
        "M",
        "ND",
        "NORM",
        "MOSAIC"
],
      "ImagedNucleus": "1H",
      "ImagingFrequency": 123.191148,
      "InPlanePhaseEncodingDirection": "COL",
      "MRAcquisitionType": "2D",
      "MagneticFieldStrength": 3.0,
      "Manufacturer": "SIEMENS",
      "ManufacturerModelName": "Prisma",
      "Modality": "MR",
      "NumberOfAverages": 1.0,
      "NumberOfPhaseEncodingSteps": 105,
      "PercentPhaseFieldOfView": 100.0,
      "PercentSampling": 100.0,
      "PerformedProcedureStepStartTime": "101241.248000",
      "PhotometricInterpretation": "MONOCHROME2",
      "PixelBandwidth": 2465.0,
      "PixelRepresentation": 0,
      "PixelSpacing": [3.542857170105, 3.542857170105],
      "ProtocolName": "ep2d_p2_Task_3.5_measurment:237",
      "RepetitionTime": 2000.0,
      "Rows": 420,
      "SAR": 0.08099119633908,
      "SamplesPerPixel": 1,
      "ScanOptions": "FS",
      "ScanningSequence": "EP",
      "SequenceName": "*epfid2d1_70",
      "SequenceVariant": [
        "SK",
        "OSP"
],
      "SeriesDescription": "ep2d_p2_Task_3.5_measurment:237",
      "SeriesNumber": 8,
      "SeriesTime": "111250.904000",
      "SliceLocation": -43.998133652623,
      "SliceThickness": 3.5,
      "SmallestImagePixelValue": 0,
      "SoftwareVersions": "syngo MR E11",
      "SpacingBetweenSlices": 3.8500000342037,
      "SpecificCharacterSet": "ISO_IR 100",
      "StudyID": "1",
      "StudyTime": "101241.199000",
      "TransmitCoilName": "Body",
      "VariableFlipAngleFlag": "N",
      "WindowCenterWidthExplanation": "Algo1",
      "dBdt": 0.0},
    "slices": {}
  },
  "time": {
    "samples": {
      "AcquisitionNumber": [1, 2, 3, 4, 5, 6, 7, 8, 9, 10, 11, 12, 13, 14, 15, 16, 17, 18, 19, 20, 21, 22, 23, 24, 25, 26, 27, 28, 29, 30, 31, 32, 33, 34, 35, 36, 37, 38, 39, 40, 41, 42, 43, 44, 45, 46, 47, 48, 49, 50, 51, 52, 53, 54, 55, 56, 57, 58, 59, 60, 61, 62, 63, 64, 65, 66, 67, 68, 69, 70, 71, 72, 73, 74, 75, 76, 77, 78, 79, 80, 81, 82, 83, 84, 85, 86, 87, 88, 89, 90, 91, 92, 93, 94, 95, 96, 97, 98, 99, 100, 101, 102, 103, 104, 105, 106, 107, 108, 109, 110, 111, 112, 113, 114, 115, 116, 117, 118, 119, 120, 121, 122, 123, 124, 125, 126, 127, 128, 129, 130, 131, 132, 133, 134, 135, 136, 137, 138, 139, 140, 141, 142, 143, 144, 145, 146, 147, 148, 149, 150, 151, 152, 153, 154, 155, 156, 157, 158, 159, 160, 161, 162, 163, 164, 165, 166, 167, 168, 169, 170, 171, 172, 173, 174, 175, 176, 177, 178, 179, 180, 181, 182, 183, 184, 185, 186, 187, 188, 189, 190, 191, 192, 193, 194, 195, 196, 197, 198, 199, 200, 201, 202, 203, 204, 205, 206, 207, 208, 209, 210, 211, 212, 213, 214, 215, 216, 217, 218, 219, 220, 221, 222, 223, 224, 225, 226, 227, 228, 229, 230, 231, 232, 233, 234, 235, 236, 237],
      "AcquisitionTime": ["111205.455000", "111207.455000", "111209.455000", "111211.455000", "111213.455000", "111215.455000", "111217.455000", "111219.455000", "111221.455000", "111223.455000", "111225.455000", "111227.455000", "111229.455000", "111231.455000", "111233.455000", "111235.455000", "111237.455000", "111239.455000", "111241.455000", "111243.455000", "111245.455000", "111247.455000", "111249.455000", "111251.455000", "111253.455000", "111255.455000", "111257.455000", "111259.455000", "111301.455000", "111303.455000", "111305.455000", "111307.455000", "111309.455000", "111311.455000", "111313.455000", "111315.455000", "111317.455000", "111319.455000", "111321.455000", "111323.455000", "111325.455000", "111327.455000", "111329.455000", "111331.455000", "111333.455000", "111335.455000", "111337.455000", "111339.455000", "111341.455000", "111343.455000", "111345.455000", "111347.455000", "111349.455000", "111351.455000", "111353.455000", "111355.455000", "111357.455000", "111359.455000", "111401.455000", "111403.455000", "111405.455000", "111407.455000", "111409.455000", "111411.455000", "111413.455000", "111415.455000", "111417.455000", "111419.455000", "111421.455000", "111423.455000", "111425.455000", "111427.455000", "111429.455000", "111431.455000", "111433.455000", "111435.455000", "111437.455000", "111439.455000", "111441.455000", "111443.455000", "111445.455000", "111447.455000", "111449.455000", "111451.455000", "111453.455000", "111455.455000", "111457.455000", "111459.455000", "111501.455000", "111503.455000", "111505.455000", "111507.455000", "111509.455000", "111511.455000", "111513.455000", "111515.455000", "111517.455000", "111519.455000", "111521.455000", "111523.455000", "111525.455000", "111527.455000", "111529.455000", "111531.455000", "111533.455000", "111535.455000", "111537.455000", "111539.455000", "111541.455000", "111543.455000", "111545.455000", "111547.455000", "111549.455000", "111551.455000", "111553.455000", "111555.455000", "111557.455000", "111559.455000", "111601.455000", "111603.455000", "111605.455000", "111607.455000", "111609.455000", "111611.455000", "111613.455000", "111615.455000", "111617.455000", "111619.455000", "111621.455000", "111623.455000", "111625.455000", "111627.455000", "111629.455000", "111631.455000", "111633.455000", "111635.455000", "111637.455000", "111639.455000", "111641.455000", "111643.455000", "111645.455000", "111647.455000", "111649.455000", "111651.455000", "111653.455000", "111655.455000", "111657.455000", "111659.455000", "111701.455000", "111703.455000", "111705.455000", "111707.455000", "111709.455000", "111711.455000", "111713.455000", "111715.455000", "111717.455000", "111719.455000", "111721.455000", "111723.455000", "111725.455000", "111727.455000", "111729.455000", "111731.455000", "111733.455000", "111735.455000", "111737.455000", "111739.455000", "111741.455000", "111743.455000", "111745.455000", "111747.455000", "111749.455000", "111751.455000", "111753.455000", "111755.455000", "111757.455000", "111759.455000", "111801.455000", "111803.455000", "111805.455000", "111807.455000", "111809.455000", "111811.455000", "111813.455000", "111815.455000", "111817.455000", "111819.455000", "111821.455000", "111823.455000", "111825.455000", "111827.455000", "111829.455000", "111831.455000", "111833.455000", "111835.455000", "111837.455000", "111839.455000", "111841.455000", "111843.455000", "111845.455000", "111847.455000", "111849.455000", "111851.455000", "111853.455000", "111855.455000", "111857.455000", "111859.455000", "111901.455000", "111903.455000", "111905.455000", "111907.455000", "111909.455000", "111911.455000", "111913.455000", "111915.455000", "111917.455000", "111919.455000", "111921.455000", "111923.455000", "111925.455000", "111927.455000", "111929.455000", "111931.455000", "111933.455000", "111935.455000", "111937.455000", "111939.455000", "111941.455000", "111943.455000", "111945.455000", "111947.455000", "111949.455000", "111951.455000", "111953.455000", "111955.455000", "111957.455000"],
      "ContentTime": ["111250.908000", "111250.912000", "111250.916000", "111250.919000", "111250.922000", "111250.925000", "111250.929000", "111250.932000", "111250.935000", "111250.938000", "111250.941000", "111250.944000", "111250.948000", "111250.951000", "111250.955000", "111250.958000", "111250.961000", "111250.964000", "111250.968000", "111250.971000", "111250.974000", "111250.978000", "111250.986000", "111330.886000", "111330.890000", "111330.893000", "111330.896000", "111330.899000", "111330.902000", "111330.905000", "111330.908000", "111330.912000", "111330.915000", "111330.918000", "111330.921000", "111330.924000", "111330.928000", "111330.931000", "111330.934000", "111330.937000", "111330.941000", "111330.944000", "111330.947000", "111410.885000", "111410.888000", "111410.891000", "111410.893000", "111410.895000", "111410.898000", "111410.900000", "111410.903000", "111410.905000", "111410.908000", "111410.910000", "111410.913000", "111410.915000", "111410.918000", "111410.920000", "111410.923000", "111410.925000", "111410.928000", "111410.930000", "111410.932000", "111450.886000", "111450.890000", "111450.893000", "111450.896000", "111450.899000", "111450.903000", "111450.906000", "111450.909000", "111450.913000", "111450.916000", "111450.919000", "111450.923000", "111450.926000", "111450.929000", "111450.932000", "111450.936000", "111450.939000", "111450.942000", "111450.945000", "111450.949000", "111530.887000", "111530.893000", "111530.896000", "111530.899000", "111530.902000", "111530.906000", "111530.909000", "111530.912000", "111530.915000", "111530.918000", "111530.921000", "111530.925000", "111530.928000", "111530.931000", "111530.934000", "111530.937000", "111530.941000", "111530.944000", "111530.947000", "111530.950000", "111610.885000", "111610.887000", "111610.890000", "111610.892000", "111610.895000", "111610.897000", "111610.900000", "111610.902000", "111610.905000", "111610.907000", "111610.910000", "111610.912000", "111610.914000", "111610.917000", "111610.920000", "111610.922000", "111610.924000", "111610.927000", "111610.929000", "111610.932000", "111650.886000", "111650.890000", "111650.893000", "111650.896000", "111650.899000", "111650.910000", "111650.914000", "111650.917000", "111650.920000", "111650.923000", "111650.926000", "111650.929000", "111650.933000", "111650.936000", "111650.939000", "111650.942000", "111650.946000", "111650.949000", "111650.952000", "111650.955000", "111730.886000", "111730.890000", "111730.893000", "111730.896000", "111730.900000", "111730.903000", "111730.906000", "111730.909000", "111730.913000", "111730.916000", "111730.919000", "111730.923000", "111730.926000", "111730.936000", "111730.939000", "111730.943000", "111730.946000", "111730.949000", "111730.953000", "111730.956000", "111810.886000", "111810.889000", "111810.892000", "111810.894000", "111810.897000", "111810.899000", "111810.913000", "111810.916000", "111810.918000", "111810.921000", "111810.924000", "111810.926000", "111810.929000", "111810.932000", "111810.934000", "111810.937000", "111810.940000", "111810.942000", "111810.945000", "111810.947000", "111850.886000", "111850.890000", "111850.893000", "111850.897000", "111850.900000", "111850.903000", "111850.906000", "111850.910000", "111850.913000", "111850.916000", "111850.919000", "111850.923000", "111850.926000", "111850.930000", "111850.933000", "111850.936000", "111850.940000", "111850.943000", "111850.946000", "111850.949000", "111930.886000", "111930.889000", "111930.892000", "111930.896000", "111930.899000", "111930.902000", "111930.905000", "111930.909000", "111930.912000", "111930.915000", "111930.918000", "111930.922000", "111930.925000", "111930.928000", "111930.931000", "111930.935000", "111930.938000", "111930.941000", "111930.944000", "111930.947000", "111958.484000", "111958.487000", "111958.489000", "111958.492000", "111958.494000", "111958.497000", "111958.499000", "111958.502000", "111958.504000", "111958.507000", "111958.509000", "111958.512000", "111958.523000", "111958.527000"],
      "InstanceCreationTime": ["111250.908000", "111250.912000", "111250.916000", "111250.919000", "111250.922000", "111250.925000", "111250.929000", "111250.932000", "111250.935000", "111250.938000", "111250.941000", "111250.944000", "111250.948000", "111250.951000", "111250.955000", "111250.958000", "111250.961000", "111250.964000", "111250.968000", "111250.971000", "111250.974000", "111250.978000", "111250.986000", "111330.886000", "111330.890000", "111330.893000", "111330.896000", "111330.899000", "111330.902000", "111330.905000", "111330.908000", "111330.912000", "111330.915000", "111330.918000", "111330.921000", "111330.924000", "111330.928000", "111330.931000", "111330.934000", "111330.937000", "111330.941000", "111330.944000", "111330.947000", "111410.885000", "111410.888000", "111410.891000", "111410.893000", "111410.895000", "111410.898000", "111410.900000", "111410.903000", "111410.905000", "111410.908000", "111410.910000", "111410.913000", "111410.915000", "111410.918000", "111410.920000", "111410.923000", "111410.925000", "111410.928000", "111410.930000", "111410.932000", "111450.886000", "111450.890000", "111450.893000", "111450.896000", "111450.899000", "111450.903000", "111450.906000", "111450.909000", "111450.913000", "111450.916000", "111450.919000", "111450.923000", "111450.926000", "111450.929000", "111450.932000", "111450.936000", "111450.939000", "111450.942000", "111450.945000", "111450.949000", "111530.887000", "111530.893000", "111530.896000", "111530.899000", "111530.902000", "111530.906000", "111530.909000", "111530.912000", "111530.915000", "111530.918000", "111530.921000", "111530.925000", "111530.928000", "111530.931000", "111530.934000", "111530.937000", "111530.941000", "111530.944000", "111530.947000", "111530.950000", "111610.885000", "111610.887000", "111610.890000", "111610.892000", "111610.895000", "111610.897000", "111610.900000", "111610.902000", "111610.905000", "111610.907000", "111610.910000", "111610.912000", "111610.914000", "111610.917000", "111610.920000", "111610.922000", "111610.924000", "111610.927000", "111610.929000", "111610.932000", "111650.886000", "111650.890000", "111650.893000", "111650.896000", "111650.899000", "111650.910000", "111650.914000", "111650.917000", "111650.920000", "111650.923000", "111650.926000", "111650.929000", "111650.933000", "111650.936000", "111650.939000", "111650.942000", "111650.946000", "111650.949000", "111650.952000", "111650.955000", "111730.886000", "111730.890000", "111730.893000", "111730.896000", "111730.900000", "111730.903000", "111730.906000", "111730.909000", "111730.913000", "111730.916000", "111730.919000", "111730.923000", "111730.926000", "111730.936000", "111730.939000", "111730.943000", "111730.946000", "111730.949000", "111730.953000", "111730.956000", "111810.886000", "111810.889000", "111810.892000", "111810.894000", "111810.897000", "111810.899000", "111810.913000", "111810.916000", "111810.918000", "111810.921000", "111810.924000", "111810.926000", "111810.929000", "111810.932000", "111810.934000", "111810.937000", "111810.940000", "111810.942000", "111810.945000", "111810.947000", "111850.886000", "111850.890000", "111850.893000", "111850.897000", "111850.900000", "111850.903000", "111850.906000", "111850.910000", "111850.913000", "111850.916000", "111850.919000", "111850.923000", "111850.926000", "111850.930000", "111850.933000", "111850.936000", "111850.940000", "111850.943000", "111850.946000", "111850.949000", "111930.886000", "111930.889000", "111930.892000", "111930.896000", "111930.899000", "111930.902000", "111930.905000", "111930.909000", "111930.912000", "111930.915000", "111930.918000", "111930.922000", "111930.925000", "111930.928000", "111930.931000", "111930.935000", "111930.938000", "111930.941000", "111930.944000", "111930.947000", "111958.484000", "111958.487000", "111958.489000", "111958.492000", "111958.494000", "111958.497000", "111958.499000", "111958.502000", "111958.504000", "111958.507000", "111958.509000", "111958.512000", "111958.523000", "111958.527000"],
      "InstanceNumber": [1, 2, 3, 4, 5, 6, 7, 8, 9, 10, 11, 12, 13, 14, 15, 16, 17, 18, 19, 20, 21, 22, 23, 24, 25, 26, 27, 28, 29, 30, 31, 32, 33, 34, 35, 36, 37, 38, 39, 40, 41, 42, 43, 44, 45, 46, 47, 48, 49, 50, 51, 52, 53, 54, 55, 56, 57, 58, 59, 60, 61, 62, 63, 64, 65, 66, 67, 68, 69, 70, 71, 72, 73, 74, 75, 76, 77, 78, 79, 80, 81, 82, 83, 84, 85, 86, 87, 88, 89, 90, 91, 92, 93, 94, 95, 96, 97, 98, 99, 100, 101, 102, 103, 104, 105, 106, 107, 108, 109, 110, 111, 112, 113, 114, 115, 116, 117, 118, 119, 120, 121, 122, 123, 124, 125, 126, 127, 128, 129, 130, 131, 132, 133, 134, 135, 136, 137, 138, 139, 140, 141, 142, 143, 144, 145, 146, 147, 148, 149, 150, 151, 152, 153, 154, 155, 156, 157, 158, 159, 160, 161, 162, 163, 164, 165, 166, 167, 168, 169, 170, 171, 172, 173, 174, 175, 176, 177, 178, 179, 180, 181, 182, 183, 184, 185, 186, 187, 188, 189, 190, 191, 192, 193, 194, 195, 196, 197, 198, 199, 200, 201, 202, 203, 204, 205, 206, 207, 208, 209, 210, 211, 212, 213, 214, 215, 216, 217, 218, 219, 220, 221, 222, 223, 224, 225, 226, 227, 228, 229, 230, 231, 232, 233, 234, 235, 236, 237],
      "LargestImagePixelValue": [1729, 2537, 1751, 2234, 1706, 1833, 2544, 1735, 2041, 1655, 2092, 2441, 1738, 2132, 2007, 1698, 2418, 1748, 1698, 2330, 1776, 2252, 1717, 2233, 2376, 1903, 1952, 2308, 1675, 2187, 2143, 1913, 2084, 1908, 1728, 2364, 1672, 1671, 2012, 1685, 2245, 2443, 1695, 1760, 2205, 1667, 1830, 2098, 1684, 2150, 2415, 1792, 1813, 1885, 1776, 1740, 1912, 2083, 1712, 1776, 2454, 1841, 1668, 2440, 1689, 1672, 2446, 1790, 1691, 2438, 1720, 1695, 2393, 1671, 1689, 2480, 1666, 1707, 2448, 1658, 1675, 2142, 1786, 1720, 2329, 2715, 1783, 2090, 1647, 1669, 2495, 2030, 1843, 1880, 1927, 1690, 2308, 1766, 1676, 2287, 2052, 1739, 1810, 2424, 1699, 1684, 2226, 1648, 1684, 2273, 1677, 2008, 2122, 1716, 1701, 2175, 2668, 1700, 1663, 1648, 2288, 1664, 1752, 1782, 2350, 1674, 1751, 2433, 2274, 1647, 1695, 2187, 2040, 1686, 2037, 2010, 1647, 1854, 2512, 1730, 1751, 1685, 2019, 1650, 1797, 2200, 2239, 1718, 1672, 2452, 2447, 1722, 1728, 1779, 1883, 1656, 2110, 2323, 1681, 1656, 2001, 2252, 1705, 1968, 2546, 1819, 1747, 2383, 1821, 1656, 2008, 1675, 1743, 2002, 2500, 1686, 1664, 2304, 1656, 1654, 2254, 1967, 1743, 1732, 2315, 1856, 1668, 2149, 1657, 1735, 2086, 1667, 2154, 2422, 1932, 1668, 2013, 1957, 1676, 2227, 2321, 1741, 1689, 2116, 1680, 1678, 2509, 1667, 1667, 2047, 1703, 2286, 1665, 1768, 2314, 1677, 1969, 2262, 1868, 2148, 1730, 1695, 2118, 2140, 1903, 1687, 2328, 1786, 1684, 1826, 2164, 2241, 1681, 1698, 2013, 1689, 1811],
      "WindowCenter": [691.0, 692.0, 689.0, 690.0, 688.0, 689.0, 691.0, 687.0, 689.0, 688.0, 689.0, 690.0, 687.0, 690.0, 689.0, 687.0, 691.0, 687.0, 688.0, 691.0, 688.0, 690.0, 688.0, 689.0, 690.0, 688.0, 689.0, 690.0, 687.0, 689.0, 689.0, 689.0, 690.0, 689.0, 688.0, 690.0, 687.0, 688.0, 690.0, 688.0, 690.0, 690.0, 687.0, 687.0, 689.0, 687.0, 688.0, 689.0, 688.0, 689.0, 690.0, 687.0, 687.0, 688.0, 688.0, 689.0, 689.0, 689.0, 687.0, 688.0, 691.0, 688.0, 688.0, 691.0, 688.0, 688.0, 691.0, 688.0, 687.0, 690.0, 687.0, 687.0, 689.0, 687.0, 688.0, 690.0, 687.0, 687.0, 689.0, 685.0, 686.0, 688.0, 688.0, 687.0, 689.0, 690.0, 686.0, 687.0, 686.0, 686.0, 689.0, 687.0, 686.0, 687.0, 688.0, 686.0, 688.0, 686.0, 686.0, 688.0, 688.0, 686.0, 687.0, 689.0, 686.0, 685.0, 688.0, 686.0, 686.0, 688.0, 686.0, 688.0, 687.0, 686.0, 687.0, 688.0, 689.0, 685.0, 684.0, 685.0, 689.0, 686.0, 686.0, 686.0, 689.0, 687.0, 687.0, 688.0, 687.0, 685.0, 685.0, 688.0, 688.0, 686.0, 687.0, 687.0, 687.0, 688.0, 689.0, 686.0, 686.0, 685.0, 687.0, 687.0, 687.0, 689.0, 688.0, 686.0, 686.0, 690.0, 689.0, 685.0, 685.0, 686.0, 687.0, 686.0, 688.0, 689.0, 686.0, 686.0, 688.0, 688.0, 687.0, 686.0, 688.0, 687.0, 686.0, 688.0, 686.0, 686.0, 688.0, 688.0, 687.0, 687.0, 689.0, 686.0, 686.0, 689.0, 686.0, 686.0, 689.0, 687.0, 685.0, 685.0, 689.0, 687.0, 686.0, 689.0, 687.0, 687.0, 688.0, 687.0, 689.0, 688.0, 686.0, 685.0, 688.0, 687.0, 686.0, 688.0, 688.0, 686.0, 685.0, 688.0, 687.0, 686.0, 690.0, 686.0, 686.0, 688.0, 687.0, 689.0, 685.0, 687.0, 689.0, 686.0, 687.0, 689.0, 687.0, 689.0, 686.0, 686.0, 687.0, 688.0, 687.0, 686.0, 689.0, 687.0, 686.0, 687.0, 688.0, 688.0, 685.0, 686.0, 689.0, 688.0, 688.0],
      "WindowWidth": [1527.0, 1531.0, 1519.0, 1524.0, 1516.0, 1519.0, 1526.0, 1515.0, 1520.0, 1515.0, 1521.0, 1525.0, 1516.0, 1522.0, 1521.0, 1515.0, 1525.0, 1515.0, 1516.0, 1525.0, 1518.0, 1524.0, 1515.0, 1521.0, 1524.0, 1518.0, 1519.0, 1525.0, 1514.0, 1521.0, 1521.0, 1520.0, 1524.0, 1520.0, 1515.0, 1523.0, 1513.0, 1516.0, 1522.0, 1516.0, 1523.0, 1523.0, 1513.0, 1515.0, 1522.0, 1515.0, 1517.0, 1521.0, 1516.0, 1522.0, 1525.0, 1515.0, 1514.0, 1516.0, 1516.0, 1518.0, 1521.0, 1521.0, 1515.0, 1516.0, 1527.0, 1519.0, 1516.0, 1526.0, 1518.0, 1516.0, 1526.0, 1517.0, 1515.0, 1524.0, 1514.0, 1513.0, 1522.0, 1515.0, 1515.0, 1524.0, 1514.0, 1516.0, 1521.0, 1508.0, 1511.0, 1518.0, 1515.0, 1514.0, 1520.0, 1523.0, 1511.0, 1515.0, 1511.0, 1511.0, 1519.0, 1513.0, 1512.0, 1515.0, 1516.0, 1511.0, 1519.0, 1512.0, 1511.0, 1519.0, 1516.0, 1511.0, 1514.0, 1520.0, 1510.0, 1509.0, 1517.0, 1510.0, 1512.0, 1519.0, 1511.0, 1515.0, 1515.0, 1510.0, 1512.0, 1518.0, 1520.0, 1507.0, 1505.0, 1508.0, 1519.0, 1512.0, 1512.0, 1512.0, 1521.0, 1514.0, 1513.0, 1518.0, 1516.0, 1507.0, 1509.0, 1517.0, 1516.0, 1511.0, 1515.0, 1515.0, 1512.0, 1517.0, 1522.0, 1511.0, 1510.0, 1508.0, 1515.0, 1513.0, 1515.0, 1519.0, 1517.0, 1510.0, 1512.0, 1523.0, 1520.0, 1508.0, 1508.0, 1510.0, 1514.0, 1512.0, 1517.0, 1520.0, 1510.0, 1511.0, 1516.0, 1519.0, 1512.0, 1513.0, 1518.0, 1512.0, 1511.0, 1519.0, 1512.0, 1510.0, 1518.0, 1515.0, 1514.0, 1514.0, 1522.0, 1512.0, 1512.0, 1520.0, 1510.0, 1511.0, 1519.0, 1514.0, 1509.0, 1509.0, 1520.0, 1514.0, 1511.0, 1519.0, 1512.0, 1514.0, 1518.0, 1513.0, 1519.0, 1519.0, 1512.0, 1508.0, 1515.0, 1515.0, 1511.0, 1517.0, 1518.0, 1510.0, 1509.0, 1517.0, 1512.0, 1511.0, 1523.0, 1510.0, 1510.0, 1516.0, 1514.0, 1520.0, 1509.0, 1513.0, 1521.0, 1510.0, 1513.0, 1519.0, 1514.0, 1519.0, 1512.0, 1510.0, 1515.0, 1517.0, 1516.0, 1512.0, 1520.0, 1513.0, 1511.0, 1514.0, 1518.0, 1518.0, 1509.0, 1511.0, 1521.0, 1517.0, 1516.0]
    },
    "slices": {}
  }
}