{
  "AcquisitionMatrixPE": 70,
  "AcquisitionNumber": 1,
  "AcquisitionTime": "10:39:3.990000",
  "BandwidthPerPixelPhaseEncode": 38.873,
  "BaseResolution": 70,
  "BodyPartExamined": "HEAD",
  "ConsistencyInfo": "N4_VE11B_LATEST_20150530",
  "ConversionSoftware": "dcm2niix",
  "ConversionSoftwareVersion": "v1.0.20190410  GCC6.3.0",
  "DerivedVendorReportedEchoSpacing": 0.000489996,
  "DeviceSerialNumber": "66088",
  "DwellTime": 2.9e-06,
  "EchoTime": 0.03,
  "EchoTrainLength": 53,
  "EffectiveEchoSpacing": 0.000367497,
  "FlipAngle": 90,
  "ImageOrientationPatientDICOM": [0.997356, -0.0691642, 0.0222949, 0.0714914, 0.878874, -0.471668],
  "ImageType": [
    "ORIGINAL",
    "PRIMARY",
    "M",
    "ND",
    "NORM",
    "MOSAIC"
],
  "ImagingFrequency": 123.191,
  "InPlanePhaseEncodingDirectionDICOM": "COL",
  "InstitutionAddress": "Street_StreetNo_City_District_IR_ZIP",
  "InstitutionName": "Hospital",
  "InstitutionalDepartmentName": "Department",
  "MRAcquisitionType": "2D",
  "MagneticFieldStrength": 3,
  "Manufacturer": "Siemens",
  "ManufacturersModelName": "Prisma",
  "Modality": "MR",
  "ParallelReductionFactorInPlane": 2,
  "PartialFourier": 1,
  "PatientPosition": "HFS",
  "PercentPhaseFOV": 100,
  "PhaseEncodingDirection": "j-",
  "PhaseEncodingSteps": 105,
  "PhaseOversampling": 0.5,
  "PhaseResolution": 1,
  "PixelBandwidth": 2465,
  "ProcedureStepDescription": "NBML_Project_P-96169_Ebrahiminiya-Khaliq",
  "ProtocolName": "ep2d_p2_Task_3.5_measurment:237",
  "PulseSequenceDetails": "%SiemensSeq%_ep2d_pace",
  "ReceiveCoilActiveElements": "HC1-7;NC1",
  "ReceiveCoilName": "HeadNeck_64",
  "ReconMatrixPE": 70,
  "RefLinesPE": 24,
  "RepetitionTime": 2,
  "SAR": 0.0862106,
  "ScanOptions": "FS",
  "ScanningSequence": "EP",
  "SequenceName": "_epfid2d1_70",
  "SequenceVariant": "SK_OSP",
  "SeriesDescription": "ep2d_p2_Task_3.5_measurment:237",
  "SeriesNumber": 4,
  "ShimSetting": [2606, -4420, -3266, 455, -73, 146, -106, 34],
  "SliceThickness": 3.5,
  "SliceTiming": [0.99, 0, 1.0475, 0.0575, 1.105, 0.115, 1.165, 0.175, 1.2225, 0.2325, 1.28, 0.29, 1.3375, 0.3475, 1.3975, 0.4075, 1.455, 0.465, 1.5125, 0.5225, 1.5725, 0.5825, 1.63, 0.64, 1.6875, 0.6975, 1.745, 0.755, 1.805, 0.815, 1.8625, 0.8725, 1.92, 0.93],
  "SoftwareVersions": "syngo_MR_E11",
  "SpacingBetweenSlices": 3.85,
  "StationName": "AWP66088",
  "TaskName": "categorySelectivity",
  "TotalReadoutTime": 0.0253573,
  "TxRefAmp": 231.59,
  "dcmmeta_affine": [
    [-3.5334904193878174, 0.2532839775085449, -0.050158146768808365, 114.17068481445312],
    [0.24503903090953827, 3.1137232780456543, -1.8172554969787598, -92.59687042236328],
    [0.07898781448602676, 1.671050786972046, 3.393754005432129, -123.23037719726562],
    [0.0, 0.0, 0.0, 1.0]
],
  "dcmmeta_reorient_transform": [
    [0.0, -1.0, 0.0, 69.0],
    [1.0, 0.0, 0.0, 0.0],
    [0.0, 0.0, 1.0, 0.0],
    [0.0, 0.0, 0.0, 1.0]
],
  "dcmmeta_shape": [70, 70, 34, 237],
  "dcmmeta_slice_dim": 2,
  "dcmmeta_version": 0.6,
  "global": {
    "const": {
      "AcquisitionMatrix": [70, 0, 0, 70],
      "AngioFlag": "N",
      "BitsAllocated": 16,
      "BitsStored": 12,
      "BodyPartExamined": "HEAD",
      "Columns": 420,
      "EchoNumbers": 1,
      "EchoTime": 30.0,
      "EchoTrainLength": 53,
      "FlipAngle": 90.0,
      "HighBit": 11,
      "ImageOrientationPatient": [0.99735612634485, -0.0691642430929, 0.0222949483021, 0.07149144080879, 0.87887353039417, -0.4716675645659],
      "ImagePositionPatient": [-794.3327782444, -624.26980470211, 270.68315125181],
      "ImageType": [
        "ORIGINAL",
        "PRIMARY",
        "M",
        "ND",
        "NORM",
        "MOSAIC"
],
      "ImagedNucleus": "1H",
      "ImagingFrequency": 123.191233,
      "InPlanePhaseEncodingDirection": "COL",
      "MRAcquisitionType": "2D",
      "MagneticFieldStrength": 3.0,
      "Manufacturer": "SIEMENS",
      "ManufacturerModelName": "Prisma",
      "Modality": "MR",
      "NumberOfAverages": 1.0,
      "NumberOfPhaseEncodingSteps": 105,
      "PercentPhaseFieldOfView": 100.0,
      "PercentSampling": 100.0,
      "PerformedProcedureStepStartTime": "102247.716000",
      "PhotometricInterpretation": "MONOCHROME2",
      "PixelBandwidth": 2465.0,
      "PixelRepresentation": 0,
      "PixelSpacing": [3.542857170105, 3.542857170105],
      "ProtocolName": "ep2d_p2_Task_3.5_measurment:237",
      "RepetitionTime": 2000.0,
      "Rows": 420,
      "SAR": 0.08621056964224,
      "SamplesPerPixel": 1,
      "ScanOptions": "FS",
      "ScanningSequence": "EP",
      "SequenceName": "*epfid2d1_70",
      "SequenceVariant": [
        "SK",
        "OSP"
],
      "SeriesDescription": "ep2d_p2_Task_3.5_measurment:237",
      "SeriesNumber": 4,
      "SeriesTime": "103947.071000",
      "SliceLocation": -66.407274091637,
      "SliceThickness": 3.5,
      "SmallestImagePixelValue": 0,
      "SoftwareVersions": "syngo MR E11",
      "SpacingBetweenSlices": 3.8499999183353,
      "SpecificCharacterSet": "ISO_IR 100",
      "StudyID": "1",
      "StudyTime": "102247.619000",
      "TransmitCoilName": "Body",
      "VariableFlipAngleFlag": "N",
      "WindowCenterWidthExplanation": "Algo1",
      "dBdt": 0.0},
    "slices": {}
  },
  "time": {
    "samples": {
      "AcquisitionNumber": [1, 2, 3, 4, 5, 6, 7, 8, 9, 10, 11, 12, 13, 14, 15, 16, 17, 18, 19, 20, 21, 22, 23, 24, 25, 26, 27, 28, 29, 30, 31, 32, 33, 34, 35, 36, 37, 38, 39, 40, 41, 42, 43, 44, 45, 46, 47, 48, 49, 50, 51, 52, 53, 54, 55, 56, 57, 58, 59, 60, 61, 62, 63, 64, 65, 66, 67, 68, 69, 70, 71, 72, 73, 74, 75, 76, 77, 78, 79, 80, 81, 82, 83, 84, 85, 86, 87, 88, 89, 90, 91, 92, 93, 94, 95, 96, 97, 98, 99, 100, 101, 102, 103, 104, 105, 106, 107, 108, 109, 110, 111, 112, 113, 114, 115, 116, 117, 118, 119, 120, 121, 122, 123, 124, 125, 126, 127, 128, 129, 130, 131, 132, 133, 134, 135, 136, 137, 138, 139, 140, 141, 142, 143, 144, 145, 146, 147, 148, 149, 150, 151, 152, 153, 154, 155, 156, 157, 158, 159, 160, 161, 162, 163, 164, 165, 166, 167, 168, 169, 170, 171, 172, 173, 174, 175, 176, 177, 178, 179, 180, 181, 182, 183, 184, 185, 186, 187, 188, 189, 190, 191, 192, 193, 194, 195, 196, 197, 198, 199, 200, 201, 202, 203, 204, 205, 206, 207, 208, 209, 210, 211, 212, 213, 214, 215, 216, 217, 218, 219, 220, 221, 222, 223, 224, 225, 226, 227, 228, 229, 230, 231, 232, 233, 234, 235, 236, 237],
      "AcquisitionTime": ["103903.990000", "103905.990000", "103907.990000", "103909.990000", "103911.990000", "103913.990000", "103915.990000", "103917.990000", "103919.990000", "103921.990000", "103923.990000", "103925.990000", "103927.990000", "103929.990000", "103931.990000", "103933.990000", "103935.990000", "103937.990000", "103939.990000", "103941.990000", "103943.990000", "103945.990000", "103947.990000", "103949.990000", "103951.990000", "103953.990000", "103955.990000", "103957.990000", "103959.990000", "104001.990000", "104003.990000", "104005.990000", "104007.990000", "104009.990000", "104011.990000", "104013.990000", "104015.990000", "104017.990000", "104019.990000", "104021.990000", "104023.990000", "104025.990000", "104027.990000", "104029.990000", "104031.990000", "104033.990000", "104035.990000", "104037.990000", "104039.990000", "104041.990000", "104043.990000", "104045.990000", "104047.990000", "104049.990000", "104051.990000", "104053.990000", "104055.990000", "104057.990000", "104059.990000", "104101.990000", "104103.990000", "104105.990000", "104107.990000", "104109.990000", "104111.990000", "104113.990000", "104115.990000", "104117.990000", "104119.990000", "104121.990000", "104123.990000", "104125.990000", "104127.990000", "104129.990000", "104131.990000", "104133.990000", "104135.990000", "104137.990000", "104139.990000", "104141.990000", "104143.990000", "104145.990000", "104147.990000", "104149.990000", "104151.990000", "104153.990000", "104155.990000", "104157.990000", "104159.990000", "104201.990000", "104203.990000", "104205.990000", "104207.990000", "104209.990000", "104211.990000", "104213.990000", "104215.990000", "104217.990000", "104219.990000", "104221.990000", "104223.990000", "104225.990000", "104227.990000", "104229.990000", "104231.990000", "104233.990000", "104235.990000", "104237.990000", "104239.990000", "104241.990000", "104243.990000", "104245.990000", "104247.990000", "104249.990000", "104251.990000", "104253.990000", "104255.990000", "104257.990000", "104259.990000", "104301.990000", "104303.990000", "104305.990000", "104307.990000", "104309.990000", "104311.990000", "104313.990000", "104315.990000", "104317.990000", "104319.990000", "104321.990000", "104323.990000", "104325.990000", "104327.990000", "104329.990000", "104331.990000", "104333.990000", "104335.990000", "104337.990000", "104339.990000", "104341.990000", "104343.990000", "104345.990000", "104347.990000", "104349.990000", "104351.990000", "104353.990000", "104355.990000", "104357.990000", "104359.990000", "104401.990000", "104403.990000", "104405.990000", "104407.990000", "104409.990000", "104411.990000", "104413.990000", "104415.990000", "104417.990000", "104419.990000", "104421.990000", "104423.990000", "104425.990000", "104427.990000", "104429.990000", "104431.990000", "104433.990000", "104435.990000", "104437.990000", "104439.990000", "104441.990000", "104443.990000", "104445.990000", "104447.990000", "104449.990000", "104451.990000", "104453.990000", "104455.990000", "104457.990000", "104459.990000", "104501.990000", "104503.990000", "104505.990000", "104507.990000", "104509.990000", "104511.990000", "104513.990000", "104515.990000", "104517.990000", "104519.990000", "104521.990000", "104523.990000", "104525.990000", "104527.990000", "104529.990000", "104531.990000", "104533.990000", "104535.990000", "104537.990000", "104539.990000", "104541.990000", "104543.990000", "104545.990000", "104547.990000", "104549.990000", "104551.990000", "104553.990000", "104555.990000", "104557.990000", "104559.990000", "104601.990000", "104603.990000", "104605.990000", "104607.990000", "104609.990000", "104611.990000", "104613.990000", "104615.990000", "104617.990000", "104619.990000", "104621.990000", "104623.990000", "104625.990000", "104627.990000", "104629.990000", "104631.990000", "104633.990000", "104635.990000", "104637.990000", "104639.990000", "104641.990000", "104643.990000", "104645.990000", "104647.990000", "104649.990000", "104651.990000", "104653.990000", "104655.990000"],
      "ContentTime": ["103947.075000", "103947.079000", "103947.081000", "103947.084000", "103947.087000", "103947.089000", "103947.092000", "103947.094000", "103947.097000", "103947.099000", "103947.102000", "103947.104000", "103947.107000", "103947.109000", "103947.112000", "103947.117000", "103947.120000", "103947.122000", "103947.125000", "103947.128000", "103947.130000", "104027.070000", "104027.073000", "104027.077000", "104027.080000", "104027.083000", "104027.086000", "104027.089000", "104027.092000", "104027.096000", "104027.099000", "104027.103000", "104027.106000", "104027.111000", "104027.115000", "104027.118000", "104027.122000", "104027.128000", "104027.133000", "104027.136000", "104027.139000", "104107.071000", "104107.074000", "104107.077000", "104107.080000", "104107.084000", "104107.087000", "104107.090000", "104107.093000", "104107.097000", "104107.100000", "104107.103000", "104107.107000", "104107.110000", "104107.116000", "104107.119000", "104107.123000", "104107.126000", "104107.130000", "104107.133000", "104107.136000", "104147.070000", "104147.073000", "104147.076000", "104147.078000", "104147.081000", "104147.083000", "104147.086000", "104147.089000", "104147.091000", "104147.094000", "104147.096000", "104147.099000", "104147.101000", "104147.104000", "104147.106000", "104147.109000", "104147.112000", "104147.117000", "104147.120000", "104147.122000", "104227.070000", "104227.074000", "104227.077000", "104227.080000", "104227.084000", "104227.087000", "104227.090000", "104227.093000", "104227.096000", "104227.099000", "104227.103000", "104227.106000", "104227.109000", "104227.112000", "104227.118000", "104227.121000", "104227.124000", "104227.127000", "104227.130000", "104227.133000", "104307.071000", "104307.075000", "104307.078000", "104307.081000", "104307.085000", "104307.088000", "104307.091000", "104307.094000", "104307.097000", "104307.100000", "104307.103000", "104307.106000", "104307.110000", "104307.114000", "104307.118000", "104307.122000", "104307.125000", "104307.129000", "104307.132000", "104307.135000", "104347.071000", "104347.074000", "104347.077000", "104347.079000", "104347.082000", "104347.084000", "104347.087000", "104347.089000", "104347.092000", "104347.094000", "104347.097000", "104347.100000", "104347.102000", "104347.105000", "104347.108000", "104347.110000", "104347.116000", "104347.118000", "104347.121000", "104347.123000", "104407.072000", "104407.075000", "104407.078000", "104407.081000", "104407.085000", "104407.088000", "104407.091000", "104407.094000", "104407.098000", "104407.101000", "104447.070000", "104447.072000", "104447.075000", "104447.078000", "104447.080000", "104447.083000", "104447.086000", "104447.088000", "104447.091000", "104447.093000", "104447.096000", "104447.098000", "104447.101000", "104447.103000", "104447.106000", "104447.108000", "104447.113000", "104447.115000", "104447.118000", "104447.121000", "104527.071000", "104527.074000", "104527.078000", "104527.081000", "104527.084000", "104527.087000", "104527.090000", "104527.094000", "104527.097000", "104527.100000", "104527.103000", "104527.106000", "104527.109000", "104527.114000", "104527.117000", "104527.120000", "104527.123000", "104527.127000", "104527.130000", "104527.133000", "104607.072000", "104607.075000", "104607.079000", "104607.082000", "104607.085000", "104607.088000", "104607.091000", "104607.095000", "104607.098000", "104607.101000", "104607.104000", "104607.107000", "104607.112000", "104607.115000", "104607.118000", "104607.123000", "104607.126000", "104607.129000", "104607.132000", "104607.135000", "104647.070000", "104647.072000", "104647.075000", "104647.078000", "104647.080000", "104647.083000", "104647.085000", "104647.088000", "104647.091000", "104647.093000", "104647.096000", "104647.098000", "104647.101000", "104647.103000", "104647.106000", "104647.110000", "104647.113000", "104647.116000", "104647.118000", "104647.121000", "104657.155000", "104657.160000", "104657.165000", "104657.168000", "104657.171000", "104657.174000"],
      "InstanceCreationTime": ["103947.075000", "103947.079000", "103947.081000", "103947.084000", "103947.087000", "103947.089000", "103947.092000", "103947.094000", "103947.097000", "103947.099000", "103947.102000", "103947.104000", "103947.107000", "103947.109000", "103947.112000", "103947.117000", "103947.120000", "103947.122000", "103947.125000", "103947.128000", "103947.130000", "104027.070000", "104027.073000", "104027.077000", "104027.080000", "104027.083000", "104027.086000", "104027.089000", "104027.092000", "104027.096000", "104027.099000", "104027.103000", "104027.106000", "104027.111000", "104027.115000", "104027.118000", "104027.122000", "104027.128000", "104027.133000", "104027.136000", "104027.139000", "104107.071000", "104107.074000", "104107.077000", "104107.080000", "104107.084000", "104107.087000", "104107.090000", "104107.093000", "104107.097000", "104107.100000", "104107.103000", "104107.107000", "104107.110000", "104107.116000", "104107.119000", "104107.123000", "104107.126000", "104107.130000", "104107.133000", "104107.136000", "104147.070000", "104147.073000", "104147.076000", "104147.078000", "104147.081000", "104147.083000", "104147.086000", "104147.089000", "104147.091000", "104147.094000", "104147.096000", "104147.099000", "104147.101000", "104147.104000", "104147.106000", "104147.109000", "104147.112000", "104147.117000", "104147.120000", "104147.122000", "104227.070000", "104227.074000", "104227.077000", "104227.080000", "104227.084000", "104227.087000", "104227.090000", "104227.093000", "104227.096000", "104227.099000", "104227.103000", "104227.106000", "104227.109000", "104227.112000", "104227.118000", "104227.121000", "104227.124000", "104227.127000", "104227.130000", "104227.133000", "104307.071000", "104307.075000", "104307.078000", "104307.081000", "104307.085000", "104307.088000", "104307.091000", "104307.094000", "104307.097000", "104307.100000", "104307.103000", "104307.106000", "104307.110000", "104307.114000", "104307.118000", "104307.122000", "104307.125000", "104307.129000", "104307.132000", "104307.135000", "104347.071000", "104347.074000", "104347.077000", "104347.079000", "104347.082000", "104347.084000", "104347.087000", "104347.089000", "104347.092000", "104347.094000", "104347.097000", "104347.100000", "104347.102000", "104347.105000", "104347.108000", "104347.110000", "104347.116000", "104347.118000", "104347.121000", "104347.123000", "104407.072000", "104407.075000", "104407.078000", "104407.081000", "104407.085000", "104407.088000", "104407.091000", "104407.094000", "104407.098000", "104407.101000", "104447.070000", "104447.072000", "104447.075000", "104447.078000", "104447.080000", "104447.083000", "104447.086000", "104447.088000", "104447.091000", "104447.093000", "104447.096000", "104447.098000", "104447.101000", "104447.103000", "104447.106000", "104447.108000", "104447.113000", "104447.115000", "104447.118000", "104447.121000", "104527.071000", "104527.074000", "104527.078000", "104527.081000", "104527.084000", "104527.087000", "104527.090000", "104527.094000", "104527.097000", "104527.100000", "104527.103000", "104527.106000", "104527.109000", "104527.114000", "104527.117000", "104527.120000", "104527.123000", "104527.127000", "104527.130000", "104527.133000", "104607.072000", "104607.075000", "104607.079000", "104607.082000", "104607.085000", "104607.088000", "104607.091000", "104607.095000", "104607.098000", "104607.101000", "104607.104000", "104607.107000", "104607.112000", "104607.115000", "104607.118000", "104607.123000", "104607.126000", "104607.129000", "104607.132000", "104607.135000", "104647.070000", "104647.072000", "104647.075000", "104647.078000", "104647.080000", "104647.083000", "104647.085000", "104647.088000", "104647.091000", "104647.093000", "104647.096000", "104647.098000", "104647.101000", "104647.103000", "104647.106000", "104647.110000", "104647.113000", "104647.116000", "104647.118000", "104647.121000", "104657.155000", "104657.160000", "104657.165000", "104657.168000", "104657.171000", "104657.174000"],
      "InstanceNumber": [1, 2, 3, 4, 5, 6, 7, 8, 9, 10, 11, 12, 13, 14, 15, 16, 17, 18, 19, 20, 21, 22, 23, 24, 25, 26, 27, 28, 29, 30, 31, 32, 33, 34, 35, 36, 37, 38, 39, 40, 41, 42, 43, 44, 45, 46, 47, 48, 49, 50, 51, 52, 53, 54, 55, 56, 57, 58, 59, 60, 61, 62, 63, 64, 65, 66, 67, 68, 69, 70, 71, 72, 73, 74, 75, 76, 77, 78, 79, 80, 81, 82, 83, 84, 85, 86, 87, 88, 89, 90, 91, 92, 93, 94, 95, 96, 97, 98, 99, 100, 101, 102, 103, 104, 105, 106, 107, 108, 109, 110, 111, 112, 113, 114, 115, 116, 117, 118, 119, 120, 121, 122, 123, 124, 125, 126, 127, 128, 129, 130, 131, 132, 133, 134, 135, 136, 137, 138, 139, 140, 141, 142, 143, 144, 145, 146, 147, 148, 149, 150, 151, 152, 153, 154, 155, 156, 157, 158, 159, 160, 161, 162, 163, 164, 165, 166, 167, 168, 169, 170, 171, 172, 173, 174, 175, 176, 177, 178, 179, 180, 181, 182, 183, 184, 185, 186, 187, 188, 189, 190, 191, 192, 193, 194, 195, 196, 197, 198, 199, 200, 201, 202, 203, 204, 205, 206, 207, 208, 209, 210, 211, 212, 213, 214, 215, 216, 217, 218, 219, 220, 221, 222, 223, 224, 225, 226, 227, 228, 229, 230, 231, 232, 233, 234, 235, 236, 237],
      "LargestImagePixelValue": [2133, 1977, 1725, 1812, 1862, 1878, 1907, 1847, 2035, 1862, 1665, 1645, 2373, 2093, 1614, 1767, 2168, 1744, 1708, 1876, 2027, 1812, 1866, 2008, 1630, 1686, 1607, 2421, 1784, 1862, 1789, 1920, 2125, 1774, 1697, 1956, 1962, 1706, 1678, 1656, 1588, 1983, 1900, 1611, 1574, 1803, 1892, 1584, 1635, 1861, 1938, 1936, 1870, 1593, 1582, 1665, 1593, 1623, 1785, 1995, 2026, 1754, 1585, 1583, 1559, 1711, 1998, 1850, 1691, 1808, 2064, 1995, 1849, 1813, 2033, 1694, 1628, 1597, 1633, 1826, 1917, 1656, 1759, 1816, 1904, 1692, 1579, 1926, 1642, 2039, 1786, 1751, 1565, 1876, 1608, 1808, 2016, 2208, 1971, 1805, 1565, 1574, 1636, 1590, 1548, 1614, 1755, 1690, 1870, 1951, 2101, 1776, 1563, 1611, 1715, 1739, 1673, 1577, 1874, 1985, 1779, 1672, 2030, 2024, 1862, 1680, 1864, 1935, 1810, 1709, 1791, 1593, 1832, 1641, 1576, 1904, 1796, 1689, 1564, 1618, 2018, 1622, 1931, 1943, 1581, 1795, 1837, 1629, 1807, 1892, 1881, 2034, 2127, 1665, 1557, 1742, 1626, 1601, 1624, 1936, 1784, 1822, 1759, 1583, 1755, 1683, 1598, 1844, 1974, 1744, 1929, 1800, 1604, 1551, 1542, 1542, 1795, 2000, 1958, 1621, 1534, 2053, 1753, 1579, 1524, 1519, 1649, 1675, 1588, 1649, 2009, 1798, 1978, 1840, 1824, 1593, 1619, 1550, 1830, 1916, 1698, 1610, 1606, 1620, 1635, 1938, 1782, 1817, 1601, 1559, 1605, 1595, 1780, 2005, 1569, 1603, 1740, 2105, 1900, 1623, 1559, 1603, 1632, 1740, 1906, 1711, 1585, 1739, 1622, 1604, 1552, 1812, 1733, 1762, 2136, 1723, 1628],
      "WindowCenter": [670.0, 668.0, 666.0, 666.0, 667.0, 668.0, 667.0, 667.0, 668.0, 667.0, 668.0, 667.0, 668.0, 669.0, 667.0, 667.0, 668.0, 667.0, 667.0, 668.0, 668.0, 666.0, 666.0, 667.0, 667.0, 667.0, 667.0, 669.0, 666.0, 667.0, 667.0, 667.0, 667.0, 666.0, 666.0, 668.0, 668.0, 666.0, 667.0, 668.0, 667.0, 669.0, 669.0, 669.0, 667.0, 668.0, 667.0, 665.0, 666.0, 667.0, 668.0, 668.0, 668.0, 667.0, 667.0, 667.0, 667.0, 667.0, 668.0, 669.0, 668.0, 668.0, 668.0, 667.0, 667.0, 668.0, 668.0, 668.0, 667.0, 667.0, 668.0, 668.0, 667.0, 667.0, 668.0, 667.0, 667.0, 667.0, 667.0, 667.0, 667.0, 666.0, 667.0, 668.0, 668.0, 668.0, 667.0, 669.0, 667.0, 668.0, 668.0, 668.0, 668.0, 669.0, 668.0, 668.0, 669.0, 669.0, 668.0, 668.0, 667.0, 667.0, 667.0, 667.0, 667.0, 667.0, 667.0, 668.0, 669.0, 668.0, 668.0, 667.0, 667.0, 668.0, 668.0, 668.0, 668.0, 667.0, 669.0, 669.0, 667.0, 667.0, 667.0, 669.0, 667.0, 666.0, 667.0, 668.0, 668.0, 668.0, 669.0, 667.0, 668.0, 668.0, 668.0, 668.0, 667.0, 666.0, 667.0, 668.0, 668.0, 666.0, 668.0, 668.0, 668.0, 668.0, 668.0, 668.0, 669.0, 670.0, 668.0, 668.0, 668.0, 667.0, 665.0, 667.0, 667.0, 667.0, 668.0, 668.0, 667.0, 667.0, 668.0, 668.0, 669.0, 667.0, 667.0, 668.0, 668.0, 666.0, 667.0, 667.0, 667.0, 667.0, 667.0, 667.0, 668.0, 669.0, 669.0, 668.0, 668.0, 670.0, 668.0, 666.0, 666.0, 666.0, 667.0, 667.0, 667.0, 668.0, 669.0, 668.0, 668.0, 667.0, 667.0, 666.0, 666.0, 667.0, 667.0, 667.0, 667.0, 667.0, 667.0, 669.0, 668.0, 669.0, 668.0, 667.0, 667.0, 667.0, 667.0, 667.0, 668.0, 670.0, 668.0, 669.0, 668.0, 669.0, 668.0, 666.0, 666.0, 666.0, 667.0, 667.0, 668.0, 668.0, 667.0, 668.0, 667.0, 668.0, 668.0, 668.0, 669.0, 669.0, 669.0, 667.0, 666.0],
      "WindowWidth": [1464.0, 1459.0, 1455.0, 1456.0, 1458.0, 1459.0, 1458.0, 1458.0, 1459.0, 1458.0, 1459.0, 1458.0, 1461.0, 1461.0, 1456.0, 1456.0, 1460.0, 1457.0, 1457.0, 1460.0, 1459.0, 1455.0, 1455.0, 1457.0, 1457.0, 1459.0, 1456.0, 1464.0, 1455.0, 1456.0, 1457.0, 1457.0, 1457.0, 1453.0, 1454.0, 1459.0, 1459.0, 1455.0, 1457.0, 1460.0, 1456.0, 1463.0, 1463.0, 1462.0, 1457.0, 1458.0, 1457.0, 1452.0, 1455.0, 1456.0, 1458.0, 1459.0, 1460.0, 1458.0, 1458.0, 1458.0, 1456.0, 1458.0, 1459.0, 1461.0, 1460.0, 1460.0, 1460.0, 1457.0, 1457.0, 1459.0, 1461.0, 1460.0, 1457.0, 1457.0, 1460.0, 1459.0, 1458.0, 1458.0, 1460.0, 1458.0, 1458.0, 1458.0, 1457.0, 1456.0, 1458.0, 1454.0, 1456.0, 1459.0, 1459.0, 1459.0, 1458.0, 1461.0, 1456.0, 1460.0, 1459.0, 1461.0, 1460.0, 1462.0, 1460.0, 1461.0, 1463.0, 1463.0, 1460.0, 1459.0, 1456.0, 1456.0, 1458.0, 1457.0, 1457.0, 1458.0, 1458.0, 1460.0, 1461.0, 1459.0, 1459.0, 1457.0, 1458.0, 1459.0, 1460.0, 1459.0, 1460.0, 1458.0, 1462.0, 1461.0, 1457.0, 1456.0, 1459.0, 1462.0, 1456.0, 1453.0, 1458.0, 1460.0, 1459.0, 1459.0, 1462.0, 1458.0, 1459.0, 1460.0, 1459.0, 1460.0, 1458.0, 1455.0, 1457.0, 1459.0, 1461.0, 1456.0, 1460.0, 1460.0, 1458.0, 1459.0, 1460.0, 1459.0, 1462.0, 1464.0, 1459.0, 1460.0, 1459.0, 1455.0, 1452.0, 1456.0, 1456.0, 1458.0, 1459.0, 1459.0, 1457.0, 1457.0, 1459.0, 1460.0, 1461.0, 1457.0, 1457.0, 1460.0, 1461.0, 1455.0, 1457.0, 1456.0, 1456.0, 1458.0, 1458.0, 1458.0, 1460.0, 1462.0, 1462.0, 1460.0, 1459.0, 1464.0, 1458.0, 1455.0, 1455.0, 1454.0, 1456.0, 1457.0, 1458.0, 1460.0, 1463.0, 1459.0, 1459.0, 1457.0, 1457.0, 1454.0, 1454.0, 1456.0, 1458.0, 1458.0, 1456.0, 1458.0, 1458.0, 1462.0, 1458.0, 1461.0, 1459.0, 1458.0, 1457.0, 1457.0, 1458.0, 1456.0, 1460.0, 1465.0, 1459.0, 1461.0, 1459.0, 1462.0, 1459.0, 1455.0, 1455.0, 1455.0, 1456.0, 1458.0, 1460.0, 1459.0, 1457.0, 1459.0, 1457.0, 1459.0, 1459.0, 1461.0, 1462.0, 1461.0, 1462.0, 1458.0, 1455.0]
    },
    "slices": {}
  }
}