{
  "AcquisitionMatrixPE": 70,
  "AcquisitionNumber": 1,
  "AcquisitionTime": "10:50:5.855000",
  "BandwidthPerPixelPhaseEncode": 38.873,
  "BaseResolution": 70,
  "BodyPartExamined": "HEAD",
  "ConsistencyInfo": "N4_VE11B_LATEST_20150530",
  "ConversionSoftware": "dcm2niix",
  "ConversionSoftwareVersion": "v1.0.20190410  GCC6.3.0",
  "DerivedVendorReportedEchoSpacing": 0.000489996,
  "DeviceSerialNumber": "66088",
  "DwellTime": 2.9e-06,
  "EchoTime": 0.03,
  "EchoTrainLength": 53,
  "EffectiveEchoSpacing": 0.000367497,
  "FlipAngle": 90,
  "ImageOrientationPatientDICOM": [0.997356, -0.0691642, 0.0222949, 0.0714914, 0.878874, -0.471668],
  "ImageType": [
    "ORIGINAL",
    "PRIMARY",
    "M",
    "ND",
    "NORM",
    "MOSAIC"
],
  "ImagingFrequency": 123.191,
  "InPlanePhaseEncodingDirectionDICOM": "COL",
  "InstitutionAddress": "Street_StreetNo_City_District_IR_ZIP",
  "InstitutionName": "Hospital",
  "InstitutionalDepartmentName": "Department",
  "MRAcquisitionType": "2D",
  "MagneticFieldStrength": 3,
  "Manufacturer": "Siemens",
  "ManufacturersModelName": "Prisma",
  "Modality": "MR",
  "ParallelReductionFactorInPlane": 2,
  "PartialFourier": 1,
  "PatientPosition": "HFS",
  "PercentPhaseFOV": 100,
  "PhaseEncodingDirection": "j-",
  "PhaseEncodingSteps": 105,
  "PhaseOversampling": 0.5,
  "PhaseResolution": 1,
  "PixelBandwidth": 2465,
  "ProcedureStepDescription": "NBML_Project_P-96169_Ebrahiminiya-Khaliq",
  "ProtocolName": "ep2d_p2_Task_3.5_measurment:237",
  "PulseSequenceDetails": "%SiemensSeq%_ep2d_pace",
  "ReceiveCoilActiveElements": "HC1-7;NC1",
  "ReceiveCoilName": "HeadNeck_64",
  "ReconMatrixPE": 70,
  "RefLinesPE": 24,
  "RepetitionTime": 2,
  "SAR": 0.0862106,
  "ScanOptions": "FS",
  "ScanningSequence": "EP",
  "SequenceName": "_epfid2d1_70",
  "SequenceVariant": "SK_OSP",
  "SeriesDescription": "ep2d_p2_Task_3.5_measurment:237",
  "SeriesNumber": 5,
  "ShimSetting": [2606, -4420, -3266, 455, -73, 146, -106, 34],
  "SliceThickness": 3.5,
  "SliceTiming": [0.99, 0, 1.05, 0.06, 1.1075, 0.1175, 1.165, 0.175, 1.225, 0.235, 1.2825, 0.2925, 1.34, 0.35, 1.3975, 0.4075, 1.4575, 0.4675, 1.515, 0.525, 1.5725, 0.5825, 1.6325, 0.6425, 1.69, 0.7, 1.7475, 0.7575, 1.805, 0.815, 1.865, 0.875, 1.9225, 0.9325],
  "SoftwareVersions": "syngo_MR_E11",
  "SpacingBetweenSlices": 3.85,
  "StationName": "AWP66088",
  "TaskName": "categorySelectivity",
  "TotalReadoutTime": 0.0253573,
  "TxRefAmp": 231.59,
  "dcmmeta_affine": [
    [-3.5334904193878174, 0.2532839775085449, -0.050158146768808365, 114.17068481445312],
    [0.24503903090953827, 3.1137232780456543, -1.8172554969787598, -92.59687042236328],
    [0.07898781448602676, 1.671050786972046, 3.393754005432129, -123.23037719726562],
    [0.0, 0.0, 0.0, 1.0]
],
  "dcmmeta_reorient_transform": [
    [0.0, -1.0, 0.0, 69.0],
    [1.0, 0.0, 0.0, 0.0],
    [0.0, 0.0, 1.0, 0.0],
    [0.0, 0.0, 0.0, 1.0]
],
  "dcmmeta_shape": [70, 70, 34, 237],
  "dcmmeta_slice_dim": 2,
  "dcmmeta_version": 0.6,
  "global": {
    "const": {
      "AcquisitionMatrix": [70, 0, 0, 70],
      "AngioFlag": "N",
      "BitsAllocated": 16,
      "BitsStored": 12,
      "BodyPartExamined": "HEAD",
      "Columns": 420,
      "EchoNumbers": 1,
      "EchoTime": 30.0,
      "EchoTrainLength": 53,
      "FlipAngle": 90.0,
      "HighBit": 11,
      "ImageOrientationPatient": [0.99735612634485, -0.0691642430929, 0.0222949483021, 0.07149144080879, 0.87887353039417, -0.4716675645659],
      "ImagePositionPatient": [-794.3327782444, -624.26980470211, 270.68315125181],
      "ImageType": [
        "ORIGINAL",
        "PRIMARY",
        "M",
        "ND",
        "NORM",
        "MOSAIC"
],
      "ImagedNucleus": "1H",
      "ImagingFrequency": 123.191233,
      "InPlanePhaseEncodingDirection": "COL",
      "MRAcquisitionType": "2D",
      "MagneticFieldStrength": 3.0,
      "Manufacturer": "SIEMENS",
      "ManufacturerModelName": "Prisma",
      "Modality": "MR",
      "NumberOfAverages": 1.0,
      "NumberOfPhaseEncodingSteps": 105,
      "PercentPhaseFieldOfView": 100.0,
      "PercentSampling": 100.0,
      "PerformedProcedureStepStartTime": "102247.716000",
      "PhotometricInterpretation": "MONOCHROME2",
      "PixelBandwidth": 2465.0,
      "PixelRepresentation": 0,
      "PixelSpacing": [3.542857170105, 3.542857170105],
      "ProtocolName": "ep2d_p2_Task_3.5_measurment:237",
      "RepetitionTime": 2000.0,
      "Rows": 420,
      "SAR": 0.08621056964224,
      "SamplesPerPixel": 1,
      "ScanOptions": "FS",
      "ScanningSequence": "EP",
      "SequenceName": "*epfid2d1_70",
      "SequenceVariant": [
        "SK",
        "OSP"
],
      "SeriesDescription": "ep2d_p2_Task_3.5_measurment:237",
      "SeriesNumber": 5,
      "SeriesTime": "105047.441000",
      "SliceLocation": -66.407274091637,
      "SliceThickness": 3.5,
      "SmallestImagePixelValue": 0,
      "SoftwareVersions": "syngo MR E11",
      "SpacingBetweenSlices": 3.8499999183353,
      "SpecificCharacterSet": "ISO_IR 100",
      "StudyID": "1",
      "StudyTime": "102247.619000",
      "TransmitCoilName": "Body",
      "VariableFlipAngleFlag": "N",
      "WindowCenterWidthExplanation": "Algo1",
      "dBdt": 0.0},
    "slices": {}
  },
  "time": {
    "samples": {
      "AcquisitionNumber": [1, 2, 3, 4, 5, 6, 7, 8, 9, 10, 11, 12, 13, 14, 15, 16, 17, 18, 19, 20, 21, 22, 23, 24, 25, 26, 27, 28, 29, 30, 31, 32, 33, 34, 35, 36, 37, 38, 39, 40, 41, 42, 43, 44, 45, 46, 47, 48, 49, 50, 51, 52, 53, 54, 55, 56, 57, 58, 59, 60, 61, 62, 63, 64, 65, 66, 67, 68, 69, 70, 71, 72, 73, 74, 75, 76, 77, 78, 79, 80, 81, 82, 83, 84, 85, 86, 87, 88, 89, 90, 91, 92, 93, 94, 95, 96, 97, 98, 99, 100, 101, 102, 103, 104, 105, 106, 107, 108, 109, 110, 111, 112, 113, 114, 115, 116, 117, 118, 119, 120, 121, 122, 123, 124, 125, 126, 127, 128, 129, 130, 131, 132, 133, 134, 135, 136, 137, 138, 139, 140, 141, 142, 143, 144, 145, 146, 147, 148, 149, 150, 151, 152, 153, 154, 155, 156, 157, 158, 159, 160, 161, 162, 163, 164, 165, 166, 167, 168, 169, 170, 171, 172, 173, 174, 175, 176, 177, 178, 179, 180, 181, 182, 183, 184, 185, 186, 187, 188, 189, 190, 191, 192, 193, 194, 195, 196, 197, 198, 199, 200, 201, 202, 203, 204, 205, 206, 207, 208, 209, 210, 211, 212, 213, 214, 215, 216, 217, 218, 219, 220, 221, 222, 223, 224, 225, 226, 227, 228, 229, 230, 231, 232, 233, 234, 235, 236, 237],
      "AcquisitionTime": ["105005.855000", "105007.855000", "105009.855000", "105011.855000", "105013.855000", "105015.855000", "105017.855000", "105019.855000", "105021.855000", "105023.855000", "105025.855000", "105027.855000", "105029.855000", "105031.855000", "105033.855000", "105035.855000", "105037.855000", "105039.855000", "105041.855000", "105043.855000", "105045.855000", "105047.855000", "105049.855000", "105051.855000", "105053.855000", "105055.855000", "105057.855000", "105059.855000", "105101.855000", "105103.855000", "105105.855000", "105107.855000", "105109.855000", "105111.855000", "105113.855000", "105115.855000", "105117.855000", "105119.855000", "105121.855000", "105123.855000", "105125.855000", "105127.855000", "105129.855000", "105131.855000", "105133.855000", "105135.855000", "105137.855000", "105139.855000", "105141.855000", "105143.855000", "105145.855000", "105147.855000", "105149.855000", "105151.855000", "105153.855000", "105155.855000", "105157.855000", "105159.855000", "105201.855000", "105203.855000", "105205.855000", "105207.855000", "105209.855000", "105211.855000", "105213.855000", "105215.855000", "105217.855000", "105219.855000", "105221.855000", "105223.855000", "105225.855000", "105227.855000", "105229.855000", "105231.855000", "105233.855000", "105235.855000", "105237.855000", "105239.855000", "105241.855000", "105243.855000", "105245.855000", "105247.855000", "105249.855000", "105251.855000", "105253.855000", "105255.855000", "105257.855000", "105259.855000", "105301.855000", "105303.855000", "105305.855000", "105307.855000", "105309.855000", "105311.855000", "105313.855000", "105315.855000", "105317.855000", "105319.855000", "105321.855000", "105323.855000", "105325.855000", "105327.855000", "105329.855000", "105331.855000", "105333.855000", "105335.855000", "105337.855000", "105339.855000", "105341.855000", "105343.855000", "105345.855000", "105347.855000", "105349.855000", "105351.855000", "105353.855000", "105355.855000", "105357.855000", "105359.855000", "105401.855000", "105403.855000", "105405.855000", "105407.855000", "105409.855000", "105411.855000", "105413.855000", "105415.855000", "105417.855000", "105419.855000", "105421.855000", "105423.855000", "105425.855000", "105427.855000", "105429.855000", "105431.855000", "105433.855000", "105435.855000", "105437.855000", "105439.855000", "105441.855000", "105443.855000", "105445.855000", "105447.855000", "105449.855000", "105451.855000", "105453.855000", "105455.855000", "105457.855000", "105459.855000", "105501.855000", "105503.855000", "105505.855000", "105507.855000", "105509.855000", "105511.855000", "105513.855000", "105515.855000", "105517.855000", "105519.855000", "105521.855000", "105523.855000", "105525.855000", "105527.855000", "105529.855000", "105531.855000", "105533.855000", "105535.855000", "105537.855000", "105539.855000", "105541.855000", "105543.855000", "105545.855000", "105547.855000", "105549.855000", "105551.855000", "105553.855000", "105555.855000", "105557.855000", "105559.855000", "105601.855000", "105603.855000", "105605.855000", "105607.855000", "105609.855000", "105611.855000", "105613.855000", "105615.855000", "105617.855000", "105619.855000", "105621.855000", "105623.855000", "105625.855000", "105627.855000", "105629.855000", "105631.855000", "105633.855000", "105635.855000", "105637.855000", "105639.855000", "105641.855000", "105643.855000", "105645.855000", "105647.855000", "105649.855000", "105651.855000", "105653.855000", "105655.855000", "105657.855000", "105659.855000", "105701.855000", "105703.855000", "105705.855000", "105707.855000", "105709.855000", "105711.855000", "105713.855000", "105715.855000", "105717.855000", "105719.855000", "105721.855000", "105723.855000", "105725.855000", "105727.855000", "105729.855000", "105731.855000", "105733.855000", "105735.855000", "105737.855000", "105739.855000", "105741.855000", "105743.855000", "105745.855000", "105747.855000", "105749.855000", "105751.855000", "105753.855000", "105755.855000", "105757.855000"],
      "ContentTime": ["105047.445000", "105047.459000", "105047.461000", "105047.464000", "105047.467000", "105047.469000", "105047.472000", "105047.475000", "105047.477000", "105047.480000", "105047.482000", "105047.485000", "105047.487000", "105047.490000", "105047.492000", "105047.495000", "105047.497000", "105047.500000", "105047.502000", "105047.505000", "105047.508000", "105127.439000", "105127.442000", "105127.446000", "105127.449000", "105127.452000", "105127.455000", "105127.458000", "105127.462000", "105127.465000", "105127.469000", "105127.472000", "105127.476000", "105127.479000", "105127.482000", "105127.485000", "105127.488000", "105127.491000", "105127.495000", "105127.498000", "105127.501000", "105207.439000", "105207.443000", "105207.452000", "105207.455000", "105207.459000", "105207.462000", "105207.465000", "105207.469000", "105207.473000", "105207.478000", "105207.482000", "105207.486000", "105207.489000", "105207.497000", "105207.500000", "105207.503000", "105207.506000", "105207.510000", "105207.514000", "105207.517000", "105247.438000", "105247.441000", "105247.444000", "105247.447000", "105247.449000", "105247.452000", "105247.454000", "105247.457000", "105247.460000", "105247.462000", "105247.465000", "105247.467000", "105247.470000", "105247.472000", "105247.475000", "105247.477000", "105247.480000", "105247.483000", "105247.485000", "105247.488000", "105327.439000", "105327.443000", "105327.446000", "105327.449000", "105327.452000", "105327.455000", "105327.458000", "105327.461000", "105327.464000", "105327.469000", "105327.472000", "105327.475000", "105327.478000", "105327.481000", "105327.484000", "105327.487000", "105327.490000", "105327.494000", "105327.497000", "105327.500000", "105347.438000", "105347.440000", "105347.443000", "105347.446000", "105347.448000", "105347.451000", "105347.453000", "105347.456000", "105347.458000", "105347.461000", "105427.439000", "105427.442000", "105427.445000", "105427.449000", "105427.452000", "105427.455000", "105427.477000", "105427.480000", "105427.483000", "105427.487000", "105427.490000", "105427.493000", "105427.496000", "105427.499000", "105427.503000", "105427.506000", "105427.509000", "105427.512000", "105427.515000", "105427.519000", "105507.439000", "105507.443000", "105507.446000", "105507.450000", "105507.453000", "105507.456000", "105507.460000", "105507.463000", "105507.467000", "105507.470000", "105507.473000", "105507.476000", "105507.480000", "105507.483000", "105507.487000", "105507.493000", "105507.497000", "105507.501000", "105507.504000", "105507.508000", "105547.438000", "105547.440000", "105547.443000", "105547.446000", "105547.448000", "105547.451000", "105547.453000", "105547.456000", "105547.459000", "105547.461000", "105547.464000", "105547.466000", "105547.469000", "105547.472000", "105547.474000", "105547.477000", "105547.479000", "105547.482000", "105547.484000", "105547.487000", "105627.438000", "105627.441000", "105627.444000", "105627.448000", "105627.451000", "105627.454000", "105627.457000", "105627.461000", "105627.464000", "105627.467000", "105627.470000", "105627.473000", "105627.483000", "105627.486000", "105627.489000", "105627.493000", "105627.496000", "105627.499000", "105627.502000", "105627.506000", "105707.439000", "105707.442000", "105707.446000", "105707.449000", "105707.453000", "105707.457000", "105707.462000", "105707.465000", "105707.468000", "105707.471000", "105707.475000", "105707.478000", "105707.484000", "105707.488000", "105707.493000", "105707.499000", "105707.502000", "105707.505000", "105707.508000", "105707.513000", "105747.438000", "105747.441000", "105747.443000", "105747.446000", "105747.449000", "105747.451000", "105747.454000", "105747.456000", "105747.459000", "105747.461000", "105747.464000", "105747.467000", "105747.469000", "105747.472000", "105747.474000", "105747.477000", "105747.479000", "105747.482000", "105747.484000", "105747.487000", "105759.239000", "105759.242000", "105759.245000", "105759.247000", "105759.250000", "105759.253000"],
      "InstanceCreationTime": ["105047.445000", "105047.459000", "105047.461000", "105047.464000", "105047.467000", "105047.469000", "105047.472000", "105047.475000", "105047.477000", "105047.480000", "105047.482000", "105047.485000", "105047.487000", "105047.490000", "105047.492000", "105047.495000", "105047.497000", "105047.500000", "105047.502000", "105047.505000", "105047.508000", "105127.439000", "105127.442000", "105127.446000", "105127.449000", "105127.452000", "105127.455000", "105127.458000", "105127.462000", "105127.465000", "105127.469000", "105127.472000", "105127.476000", "105127.479000", "105127.482000", "105127.485000", "105127.488000", "105127.491000", "105127.495000", "105127.498000", "105127.501000", "105207.439000", "105207.443000", "105207.452000", "105207.455000", "105207.459000", "105207.462000", "105207.465000", "105207.469000", "105207.473000", "105207.478000", "105207.482000", "105207.486000", "105207.489000", "105207.497000", "105207.500000", "105207.503000", "105207.506000", "105207.510000", "105207.514000", "105207.517000", "105247.438000", "105247.441000", "105247.444000", "105247.447000", "105247.449000", "105247.452000", "105247.454000", "105247.457000", "105247.460000", "105247.462000", "105247.465000", "105247.467000", "105247.470000", "105247.472000", "105247.475000", "105247.477000", "105247.480000", "105247.483000", "105247.485000", "105247.488000", "105327.439000", "105327.443000", "105327.446000", "105327.449000", "105327.452000", "105327.455000", "105327.458000", "105327.461000", "105327.464000", "105327.469000", "105327.472000", "105327.475000", "105327.478000", "105327.481000", "105327.484000", "105327.487000", "105327.490000", "105327.494000", "105327.497000", "105327.500000", "105347.438000", "105347.440000", "105347.443000", "105347.446000", "105347.448000", "105347.451000", "105347.453000", "105347.456000", "105347.458000", "105347.461000", "105427.439000", "105427.442000", "105427.445000", "105427.449000", "105427.452000", "105427.455000", "105427.477000", "105427.480000", "105427.483000", "105427.487000", "105427.490000", "105427.493000", "105427.496000", "105427.499000", "105427.503000", "105427.506000", "105427.509000", "105427.512000", "105427.515000", "105427.519000", "105507.439000", "105507.443000", "105507.446000", "105507.450000", "105507.453000", "105507.456000", "105507.460000", "105507.463000", "105507.467000", "105507.470000", "105507.473000", "105507.476000", "105507.480000", "105507.483000", "105507.487000", "105507.493000", "105507.497000", "105507.501000", "105507.504000", "105507.508000", "105547.438000", "105547.440000", "105547.443000", "105547.446000", "105547.448000", "105547.451000", "105547.453000", "105547.456000", "105547.459000", "105547.461000", "105547.464000", "105547.466000", "105547.469000", "105547.472000", "105547.474000", "105547.477000", "105547.479000", "105547.482000", "105547.484000", "105547.487000", "105627.438000", "105627.441000", "105627.444000", "105627.448000", "105627.451000", "105627.454000", "105627.457000", "105627.461000", "105627.464000", "105627.467000", "105627.470000", "105627.473000", "105627.483000", "105627.486000", "105627.489000", "105627.493000", "105627.496000", "105627.499000", "105627.502000", "105627.506000", "105707.439000", "105707.442000", "105707.446000", "105707.449000", "105707.453000", "105707.457000", "105707.462000", "105707.465000", "105707.468000", "105707.471000", "105707.475000", "105707.478000", "105707.484000", "105707.488000", "105707.493000", "105707.499000", "105707.502000", "105707.505000", "105707.508000", "105707.513000", "105747.438000", "105747.441000", "105747.443000", "105747.446000", "105747.449000", "105747.451000", "105747.454000", "105747.456000", "105747.459000", "105747.461000", "105747.464000", "105747.467000", "105747.469000", "105747.472000", "105747.474000", "105747.477000", "105747.479000", "105747.482000", "105747.484000", "105747.487000", "105759.239000", "105759.242000", "105759.245000", "105759.247000", "105759.250000", "105759.253000"],
      "InstanceNumber": [1, 2, 3, 4, 5, 6, 7, 8, 9, 10, 11, 12, 13, 14, 15, 16, 17, 18, 19, 20, 21, 22, 23, 24, 25, 26, 27, 28, 29, 30, 31, 32, 33, 34, 35, 36, 37, 38, 39, 40, 41, 42, 43, 44, 45, 46, 47, 48, 49, 50, 51, 52, 53, 54, 55, 56, 57, 58, 59, 60, 61, 62, 63, 64, 65, 66, 67, 68, 69, 70, 71, 72, 73, 74, 75, 76, 77, 78, 79, 80, 81, 82, 83, 84, 85, 86, 87, 88, 89, 90, 91, 92, 93, 94, 95, 96, 97, 98, 99, 100, 101, 102, 103, 104, 105, 106, 107, 108, 109, 110, 111, 112, 113, 114, 115, 116, 117, 118, 119, 120, 121, 122, 123, 124, 125, 126, 127, 128, 129, 130, 131, 132, 133, 134, 135, 136, 137, 138, 139, 140, 141, 142, 143, 144, 145, 146, 147, 148, 149, 150, 151, 152, 153, 154, 155, 156, 157, 158, 159, 160, 161, 162, 163, 164, 165, 166, 167, 168, 169, 170, 171, 172, 173, 174, 175, 176, 177, 178, 179, 180, 181, 182, 183, 184, 185, 186, 187, 188, 189, 190, 191, 192, 193, 194, 195, 196, 197, 198, 199, 200, 201, 202, 203, 204, 205, 206, 207, 208, 209, 210, 211, 212, 213, 214, 215, 216, 217, 218, 219, 220, 221, 222, 223, 224, 225, 226, 227, 228, 229, 230, 231, 232, 233, 234, 235, 236, 237],
      "LargestImagePixelValue": [1566, 1975, 1925, 1583, 2148, 1611, 1594, 1645, 1615, 1540, 1578, 1983, 1991, 1698, 1585, 1590, 2049, 1964, 1565, 1559, 1675, 1619, 1599, 1599, 1569, 1574, 1609, 1841, 1574, 1567, 1717, 1946, 1587, 1555, 1582, 1614, 1689, 1841, 1565, 1570, 1878, 2004, 1669, 1589, 1557, 1590, 1658, 1609, 1569, 1642, 1620, 1835, 1703, 1573, 1619, 1605, 1650, 1915, 1560, 1604, 1614, 1663, 1848, 1599, 1672, 1589, 1773, 1670, 1797, 1942, 1606, 1570, 1626, 1638, 1555, 1548, 1568, 2034, 1560, 1544, 2005, 1839, 1619, 1614, 1564, 1929, 1707, 1560, 1571, 1597, 1917, 1565, 1557, 1863, 1668, 1540, 1681, 1872, 1538, 1600, 1602, 1517, 1880, 1964, 1616, 1564, 1553, 1872, 1590, 1568, 1611, 1570, 1566, 1503, 2059, 1567, 1507, 1716, 1692, 1626, 1620, 1511, 1895, 1597, 1706, 1637, 1576, 1732, 1672, 1626, 1589, 1752, 1850, 1517, 1586, 1568, 1737, 1835, 1879, 1597, 1554, 1621, 1896, 1661, 1901, 1526, 1564, 2149, 1550, 1805, 1546, 1592, 1674, 1608, 1797, 1514, 1559, 1679, 1855, 1619, 1563, 1526, 1567, 2411, 1547, 1581, 1589, 1623, 1991, 1749, 1731, 1754, 1663, 1711, 2082, 1513, 1561, 2276, 1624, 1521, 2279, 1543, 2083, 1803, 1519, 1663, 2095, 2092, 1546, 1539, 2299, 1604, 1590, 1608, 1912, 1825, 1740, 1544, 1538, 1612, 1720, 1845, 2428, 1529, 1525, 1794, 2013, 1677, 1536, 1805, 1529, 1529, 2369, 1894, 1615, 1539, 1652, 2163, 1607, 1546, 1554, 1962, 1568, 1785, 1824, 1544, 1651, 1846, 1632, 1514, 1818, 1869, 1703, 1661, 1548, 1534, 1519],
      "WindowCenter": [668.0, 670.0, 669.0, 668.0, 668.0, 666.0, 668.0, 668.0, 669.0, 668.0, 669.0, 670.0, 669.0, 668.0, 668.0, 669.0, 670.0, 668.0, 667.0, 667.0, 668.0, 668.0, 668.0, 668.0, 668.0, 668.0, 668.0, 669.0, 667.0, 667.0, 668.0, 668.0, 668.0, 668.0, 668.0, 668.0, 669.0, 668.0, 668.0, 668.0, 669.0, 669.0, 667.0, 667.0, 666.0, 667.0, 667.0, 668.0, 668.0, 668.0, 668.0, 669.0, 668.0, 668.0, 668.0, 668.0, 669.0, 670.0, 669.0, 669.0, 668.0, 669.0, 669.0, 668.0, 669.0, 669.0, 669.0, 669.0, 670.0, 670.0, 667.0, 668.0, 668.0, 669.0, 669.0, 668.0, 669.0, 671.0, 668.0, 668.0, 670.0, 669.0, 669.0, 669.0, 668.0, 669.0, 668.0, 668.0, 669.0, 669.0, 670.0, 669.0, 668.0, 669.0, 667.0, 668.0, 669.0, 670.0, 668.0, 668.0, 669.0, 668.0, 669.0, 670.0, 668.0, 668.0, 668.0, 669.0, 667.0, 668.0, 668.0, 668.0, 668.0, 668.0, 671.0, 668.0, 668.0, 669.0, 669.0, 669.0, 670.0, 670.0, 672.0, 670.0, 670.0, 669.0, 668.0, 668.0, 669.0, 668.0, 668.0, 670.0, 669.0, 668.0, 668.0, 668.0, 669.0, 669.0, 670.0, 668.0, 669.0, 669.0, 669.0, 669.0, 670.0, 668.0, 669.0, 671.0, 669.0, 670.0, 669.0, 668.0, 669.0, 669.0, 669.0, 667.0, 668.0, 669.0, 669.0, 668.0, 668.0, 669.0, 669.0, 670.0, 669.0, 670.0, 670.0, 669.0, 671.0, 669.0, 669.0, 668.0, 669.0, 669.0, 670.0, 669.0, 669.0, 671.0, 669.0, 669.0, 671.0, 670.0, 671.0, 670.0, 669.0, 669.0, 670.0, 671.0, 668.0, 669.0, 671.0, 669.0, 668.0, 669.0, 669.0, 669.0, 670.0, 669.0, 668.0, 669.0, 670.0, 671.0, 671.0, 668.0, 668.0, 669.0, 670.0, 668.0, 668.0, 668.0, 668.0, 669.0, 672.0, 670.0, 668.0, 668.0, 669.0, 669.0, 668.0, 669.0, 668.0, 670.0, 668.0, 669.0, 670.0, 669.0, 670.0, 669.0, 668.0, 668.0, 669.0, 669.0, 668.0, 668.0, 667.0, 667.0, 667.0],
      "WindowWidth": [1461.0, 1466.0, 1465.0, 1461.0, 1461.0, 1456.0, 1460.0, 1462.0, 1464.0, 1462.0, 1463.0, 1467.0, 1465.0, 1461.0, 1461.0, 1464.0, 1465.0, 1462.0, 1459.0, 1459.0, 1461.0, 1459.0, 1460.0, 1460.0, 1460.0, 1461.0, 1461.0, 1463.0, 1459.0, 1459.0, 1460.0, 1460.0, 1461.0, 1460.0, 1460.0, 1462.0, 1464.0, 1463.0, 1461.0, 1461.0, 1464.0, 1464.0, 1458.0, 1458.0, 1457.0, 1459.0, 1460.0, 1460.0, 1462.0, 1460.0, 1461.0, 1463.0, 1462.0, 1460.0, 1461.0, 1461.0, 1463.0, 1466.0, 1463.0, 1463.0, 1462.0, 1464.0, 1465.0, 1461.0, 1463.0, 1462.0, 1464.0, 1463.0, 1466.0, 1465.0, 1460.0, 1460.0, 1461.0, 1463.0, 1463.0, 1462.0, 1462.0, 1467.0, 1461.0, 1461.0, 1466.0, 1463.0, 1462.0, 1462.0, 1462.0, 1464.0, 1462.0, 1461.0, 1463.0, 1463.0, 1466.0, 1462.0, 1461.0, 1464.0, 1458.0, 1460.0, 1463.0, 1466.0, 1461.0, 1461.0, 1463.0, 1461.0, 1465.0, 1465.0, 1461.0, 1461.0, 1461.0, 1463.0, 1459.0, 1460.0, 1461.0, 1461.0, 1461.0, 1462.0, 1468.0, 1461.0, 1460.0, 1464.0, 1464.0, 1464.0, 1466.0, 1467.0, 1472.0, 1467.0, 1466.0, 1464.0, 1461.0, 1461.0, 1462.0, 1461.0, 1461.0, 1464.0, 1464.0, 1460.0, 1461.0, 1461.0, 1463.0, 1464.0, 1465.0, 1461.0, 1463.0, 1463.0, 1462.0, 1463.0, 1466.0, 1462.0, 1462.0, 1468.0, 1463.0, 1465.0, 1462.0, 1461.0, 1462.0, 1463.0, 1465.0, 1459.0, 1461.0, 1462.0, 1463.0, 1461.0, 1461.0, 1463.0, 1463.0, 1466.0, 1462.0, 1466.0, 1467.0, 1465.0, 1468.0, 1464.0, 1462.0, 1461.0, 1462.0, 1464.0, 1467.0, 1462.0, 1463.0, 1468.0, 1462.0, 1462.0, 1470.0, 1465.0, 1470.0, 1466.0, 1462.0, 1463.0, 1467.0, 1469.0, 1459.0, 1462.0, 1468.0, 1461.0, 1461.0, 1462.0, 1464.0, 1464.0, 1465.0, 1464.0, 1462.0, 1463.0, 1466.0, 1468.0, 1470.0, 1461.0, 1459.0, 1463.0, 1465.0, 1461.0, 1460.0, 1461.0, 1461.0, 1465.0, 1473.0, 1464.0, 1461.0, 1461.0, 1463.0, 1464.0, 1461.0, 1463.0, 1461.0, 1465.0, 1460.0, 1464.0, 1464.0, 1463.0, 1466.0, 1464.0, 1459.0, 1459.0, 1464.0, 1463.0, 1460.0, 1459.0, 1458.0, 1458.0, 1458.0]
    },
    "slices": {}
  }
}