{
  "AcquisitionMatrixPE": 70,
  "AcquisitionNumber": 1,
  "AcquisitionTime": "11:27:15.250000",
  "BandwidthPerPixelPhaseEncode": 38.873,
  "BaseResolution": 70,
  "BodyPartExamined": "HEAD",
  "ConsistencyInfo": "N4_VE11B_LATEST_20150530",
  "ConversionSoftware": "dcm2niix",
  "ConversionSoftwareVersion": "v1.0.20190410  GCC6.3.0",
  "DerivedVendorReportedEchoSpacing": 0.000489996,
  "DeviceSerialNumber": "66088",
  "DwellTime": 2.9e-06,
  "EchoTime": 0.03,
  "EchoTrainLength": 53,
  "EffectiveEchoSpacing": 0.000367497,
  "FlipAngle": 90,
  "ImageOrientationPatientDICOM": [0.997356, -0.0691642, 0.0222949, 0.0714914, 0.878874, -0.471668],
  "ImageType": [
    "ORIGINAL",
    "PRIMARY",
    "M",
    "ND",
    "NORM",
    "MOSAIC"
],
  "ImagingFrequency": 123.191,
  "InPlanePhaseEncodingDirectionDICOM": "COL",
  "InstitutionAddress": "Street_StreetNo_City_District_IR_ZIP",
  "InstitutionName": "Hospital",
  "InstitutionalDepartmentName": "Department",
  "MRAcquisitionType": "2D",
  "MagneticFieldStrength": 3,
  "Manufacturer": "Siemens",
  "ManufacturersModelName": "Prisma",
  "Modality": "MR",
  "ParallelReductionFactorInPlane": 2,
  "PartialFourier": 1,
  "PatientPosition": "HFS",
  "PercentPhaseFOV": 100,
  "PhaseEncodingDirection": "j-",
  "PhaseEncodingSteps": 105,
  "PhaseOversampling": 0.5,
  "PhaseResolution": 1,
  "PixelBandwidth": 2465,
  "ProcedureStepDescription": "NBML_Project_P-96169_Ebrahiminiya-Khaliq",
  "ProtocolName": "ep2d_p2_Task_3.5_measurment:237",
  "PulseSequenceDetails": "%SiemensSeq%_ep2d_pace",
  "ReceiveCoilActiveElements": "HC1-7;NC1",
  "ReceiveCoilName": "HeadNeck_64",
  "ReconMatrixPE": 70,
  "RefLinesPE": 24,
  "RepetitionTime": 2,
  "SAR": 0.0862106,
  "ScanOptions": "FS",
  "ScanningSequence": "EP",
  "SequenceName": "_epfid2d1_70",
  "SequenceVariant": "SK_OSP",
  "SeriesDescription": "ep2d_p2_Task_3.5_measurment:237",
  "SeriesNumber": 9,
  "ShimSetting": [2606, -4420, -3266, 455, -73, 146, -106, 34],
  "SliceThickness": 3.5,
  "SliceTiming": [0.99, 0, 1.0475, 0.0575, 1.105, 0.115, 1.165, 0.175, 1.2225, 0.2325, 1.28, 0.29, 1.34, 0.35, 1.3975, 0.4075, 1.455, 0.465, 1.5125, 0.5225, 1.5725, 0.5825, 1.63, 0.64, 1.6875, 0.6975, 1.7475, 0.7575, 1.805, 0.815, 1.8625, 0.8725, 1.92, 0.9325],
  "SoftwareVersions": "syngo_MR_E11",
  "SpacingBetweenSlices": 3.85,
  "StationName": "AWP66088",
  "TaskName": "categorySelectivity",
  "TotalReadoutTime": 0.0253573,
  "TxRefAmp": 231.59,
  "dcmmeta_affine": [
    [-3.5334904193878174, 0.2532839775085449, -0.050158146768808365, 114.17068481445312],
    [0.24503903090953827, 3.1137232780456543, -1.8172554969787598, -92.59687042236328],
    [0.07898781448602676, 1.671050786972046, 3.393754005432129, -123.23037719726562],
    [0.0, 0.0, 0.0, 1.0]
],
  "dcmmeta_reorient_transform": [
    [0.0, -1.0, 0.0, 69.0],
    [1.0, 0.0, 0.0, 0.0],
    [0.0, 0.0, 1.0, 0.0],
    [0.0, 0.0, 0.0, 1.0]
],
  "dcmmeta_shape": [70, 70, 34, 237],
  "dcmmeta_slice_dim": 2,
  "dcmmeta_version": 0.6,
  "global": {
    "const": {
      "AcquisitionMatrix": [70, 0, 0, 70],
      "AngioFlag": "N",
      "BitsAllocated": 16,
      "BitsStored": 12,
      "BodyPartExamined": "HEAD",
      "Columns": 420,
      "EchoNumbers": 1,
      "EchoTime": 30.0,
      "EchoTrainLength": 53,
      "FlipAngle": 90.0,
      "HighBit": 11,
      "ImageOrientationPatient": [0.99735612634485, -0.0691642430929, 0.0222949483021, 0.07149144080879, 0.87887353039417, -0.4716675645659],
      "ImagePositionPatient": [-794.3327782444, -624.26980470211, 270.68315125181],
      "ImageType": [
        "ORIGINAL",
        "PRIMARY",
        "M",
        "ND",
        "NORM",
        "MOSAIC"
],
      "ImagedNucleus": "1H",
      "ImagingFrequency": 123.191223,
      "InPlanePhaseEncodingDirection": "COL",
      "MRAcquisitionType": "2D",
      "MagneticFieldStrength": 3.0,
      "Manufacturer": "SIEMENS",
      "ManufacturerModelName": "Prisma",
      "Modality": "MR",
      "NumberOfAverages": 1.0,
      "NumberOfPhaseEncodingSteps": 105,
      "PercentPhaseFieldOfView": 100.0,
      "PercentSampling": 100.0,
      "PerformedProcedureStepStartTime": "102247.716000",
      "PhotometricInterpretation": "MONOCHROME2",
      "PixelBandwidth": 2465.0,
      "PixelRepresentation": 0,
      "PixelSpacing": [3.542857170105, 3.542857170105],
      "ProtocolName": "ep2d_p2_Task_3.5_measurment:237",
      "RepetitionTime": 2000.0,
      "Rows": 420,
      "SAR": 0.08621056964224,
      "SamplesPerPixel": 1,
      "ScanOptions": "FS",
      "ScanningSequence": "EP",
      "SequenceName": "*epfid2d1_70",
      "SequenceVariant": [
        "SK",
        "OSP"
],
      "SeriesDescription": "ep2d_p2_Task_3.5_measurment:237",
      "SeriesNumber": 9,
      "SeriesTime": "112800.558000",
      "SliceLocation": -66.407274091637,
      "SliceThickness": 3.5,
      "SmallestImagePixelValue": 0,
      "SoftwareVersions": "syngo MR E11",
      "SpacingBetweenSlices": 3.8499999183353,
      "SpecificCharacterSet": "ISO_IR 100",
      "StudyID": "1",
      "StudyTime": "102247.619000",
      "TransmitCoilName": "Body",
      "VariableFlipAngleFlag": "N",
      "WindowCenterWidthExplanation": "Algo1",
      "dBdt": 0.0},
    "slices": {}
  },
  "time": {
    "samples": {
      "AcquisitionNumber": [1, 2, 3, 4, 5, 6, 7, 8, 9, 10, 11, 12, 13, 14, 15, 16, 17, 18, 19, 20, 21, 22, 23, 24, 25, 26, 27, 28, 29, 30, 31, 32, 33, 34, 35, 36, 37, 38, 39, 40, 41, 42, 43, 44, 45, 46, 47, 48, 49, 50, 51, 52, 53, 54, 55, 56, 57, 58, 59, 60, 61, 62, 63, 64, 65, 66, 67, 68, 69, 70, 71, 72, 73, 74, 75, 76, 77, 78, 79, 80, 81, 82, 83, 84, 85, 86, 87, 88, 89, 90, 91, 92, 93, 94, 95, 96, 97, 98, 99, 100, 101, 102, 103, 104, 105, 106, 107, 108, 109, 110, 111, 112, 113, 114, 115, 116, 117, 118, 119, 120, 121, 122, 123, 124, 125, 126, 127, 128, 129, 130, 131, 132, 133, 134, 135, 136, 137, 138, 139, 140, 141, 142, 143, 144, 145, 146, 147, 148, 149, 150, 151, 152, 153, 154, 155, 156, 157, 158, 159, 160, 161, 162, 163, 164, 165, 166, 167, 168, 169, 170, 171, 172, 173, 174, 175, 176, 177, 178, 179, 180, 181, 182, 183, 184, 185, 186, 187, 188, 189, 190, 191, 192, 193, 194, 195, 196, 197, 198, 199, 200, 201, 202, 203, 204, 205, 206, 207, 208, 209, 210, 211, 212, 213, 214, 215, 216, 217, 218, 219, 220, 221, 222, 223, 224, 225, 226, 227, 228, 229, 230, 231, 232, 233, 234, 235, 236, 237],
      "AcquisitionTime": ["112715.250000", "112717.250000", "112719.250000", "112721.250000", "112723.250000", "112725.250000", "112727.250000", "112729.250000", "112731.250000", "112733.250000", "112735.250000", "112737.250000", "112739.250000", "112741.250000", "112743.250000", "112745.250000", "112747.250000", "112749.250000", "112751.250000", "112753.250000", "112755.250000", "112757.250000", "112759.250000", "112801.250000", "112803.250000", "112805.250000", "112807.250000", "112809.250000", "112811.250000", "112813.250000", "112815.250000", "112817.250000", "112819.250000", "112821.250000", "112823.250000", "112825.250000", "112827.250000", "112829.250000", "112831.250000", "112833.250000", "112835.250000", "112837.250000", "112839.250000", "112841.250000", "112843.250000", "112845.250000", "112847.250000", "112849.250000", "112851.250000", "112853.250000", "112855.250000", "112857.250000", "112859.250000", "112901.250000", "112903.250000", "112905.250000", "112907.250000", "112909.250000", "112911.250000", "112913.250000", "112915.250000", "112917.250000", "112919.250000", "112921.250000", "112923.250000", "112925.250000", "112927.250000", "112929.250000", "112931.250000", "112933.250000", "112935.250000", "112937.250000", "112939.250000", "112941.250000", "112943.250000", "112945.250000", "112947.250000", "112949.250000", "112951.250000", "112953.250000", "112955.250000", "112957.250000", "112959.250000", "113001.250000", "113003.250000", "113005.250000", "113007.250000", "113009.250000", "113011.250000", "113013.250000", "113015.250000", "113017.250000", "113019.250000", "113021.250000", "113023.250000", "113025.250000", "113027.250000", "113029.250000", "113031.250000", "113033.250000", "113035.250000", "113037.250000", "113039.250000", "113041.250000", "113043.250000", "113045.250000", "113047.250000", "113049.250000", "113051.250000", "113053.250000", "113055.250000", "113057.250000", "113059.250000", "113101.250000", "113103.250000", "113105.250000", "113107.250000", "113109.250000", "113111.250000", "113113.250000", "113115.250000", "113117.250000", "113119.250000", "113121.250000", "113123.250000", "113125.250000", "113127.250000", "113129.250000", "113131.250000", "113133.250000", "113135.250000", "113137.250000", "113139.250000", "113141.250000", "113143.250000", "113145.250000", "113147.250000", "113149.250000", "113151.250000", "113153.250000", "113155.250000", "113157.250000", "113159.250000", "113201.250000", "113203.250000", "113205.250000", "113207.250000", "113209.250000", "113211.250000", "113213.250000", "113215.250000", "113217.250000", "113219.250000", "113221.250000", "113223.250000", "113225.250000", "113227.250000", "113229.250000", "113231.250000", "113233.250000", "113235.250000", "113237.250000", "113239.250000", "113241.250000", "113243.250000", "113245.250000", "113247.250000", "113249.250000", "113251.250000", "113253.250000", "113255.250000", "113257.250000", "113259.250000", "113301.250000", "113303.250000", "113305.250000", "113307.250000", "113309.250000", "113311.250000", "113313.250000", "113315.250000", "113317.250000", "113319.250000", "113321.250000", "113323.250000", "113325.250000", "113327.250000", "113329.250000", "113331.250000", "113333.250000", "113335.250000", "113337.250000", "113339.250000", "113341.250000", "113343.250000", "113345.250000", "113347.250000", "113349.250000", "113351.250000", "113353.250000", "113355.250000", "113357.250000", "113359.250000", "113401.250000", "113403.250000", "113405.250000", "113407.250000", "113409.250000", "113411.250000", "113413.250000", "113415.250000", "113417.250000", "113419.250000", "113421.250000", "113423.250000", "113425.250000", "113427.250000", "113429.250000", "113431.250000", "113433.250000", "113435.250000", "113437.250000", "113439.250000", "113441.250000", "113443.250000", "113445.250000", "113447.250000", "113449.250000", "113451.250000", "113453.250000", "113455.250000", "113457.250000", "113459.250000", "113501.250000", "113503.250000", "113505.250000", "113507.250000"],
      "ContentTime": ["112800.566000", "112800.570000", "112800.573000", "112800.587000", "112800.590000", "112800.593000", "112800.596000", "112800.600000", "112800.603000", "112800.606000", "112800.609000", "112800.612000", "112800.616000", "112800.619000", "112800.622000", "112800.625000", "112800.628000", "112800.632000", "112800.635000", "112800.639000", "112800.642000", "112800.645000", "112840.555000", "112840.558000", "112840.561000", "112840.564000", "112840.574000", "112840.577000", "112840.580000", "112840.583000", "112840.587000", "112840.590000", "112840.593000", "112840.596000", "112840.599000", "112840.603000", "112840.606000", "112840.609000", "112840.612000", "112840.615000", "112840.619000", "112840.622000", "112920.554000", "112920.557000", "112920.560000", "112920.563000", "112920.566000", "112920.569000", "112920.573000", "112920.576000", "112920.579000", "112920.582000", "112920.585000", "112920.588000", "112920.591000", "112920.594000", "112920.597000", "112920.601000", "112920.604000", "112920.607000", "112920.610000", "112920.613000", "113000.558000", "113000.561000", "113000.564000", "113000.567000", "113000.570000", "113000.573000", "113000.576000", "113000.579000", "113000.583000", "113000.586000", "113000.589000", "113000.592000", "113000.595000", "113000.599000", "113000.602000", "113000.605000", "113000.608000", "113000.611000", "113000.614000", "113000.617000", "113040.556000", "113040.559000", "113040.562000", "113040.565000", "113040.569000", "113040.572000", "113040.575000", "113040.578000", "113040.581000", "113040.584000", "113040.588000", "113040.591000", "113040.594000", "113040.597000", "113040.601000", "113040.604000", "113040.622000", "113040.625000", "113040.628000", "113040.631000", "113120.554000", "113120.557000", "113120.560000", "113120.564000", "113120.567000", "113120.570000", "113120.574000", "113120.577000", "113120.580000", "113120.583000", "113120.587000", "113120.590000", "113120.593000", "113120.597000", "113120.600000", "113120.603000", "113120.606000", "113120.609000", "113120.613000", "113120.616000", "113200.556000", "113200.560000", "113200.563000", "113200.566000", "113200.569000", "113200.573000", "113200.576000", "113200.579000", "113200.582000", "113200.586000", "113200.589000", "113200.592000", "113200.596000", "113200.599000", "113200.603000", "113200.606000", "113200.609000", "113200.612000", "113200.615000", "113200.618000", "113240.555000", "113240.559000", "113240.562000", "113240.565000", "113240.568000", "113240.571000", "113240.574000", "113240.578000", "113240.581000", "113240.584000", "113240.588000", "113240.591000", "113240.594000", "113240.597000", "113240.600000", "113240.603000", "113240.606000", "113240.610000", "113240.613000", "113240.616000", "113320.554000", "113320.557000", "113320.560000", "113320.564000", "113320.567000", "113320.570000", "113320.573000", "113320.576000", "113320.579000", "113320.582000", "113320.585000", "113320.589000", "113320.592000", "113320.595000", "113320.598000", "113320.601000", "113320.604000", "113320.607000", "113320.610000", "113320.620000", "113400.557000", "113400.560000", "113400.563000", "113400.566000", "113400.579000", "113400.583000", "113400.586000", "113400.589000", "113400.592000", "113400.595000", "113400.598000", "113400.601000", "113400.605000", "113400.608000", "113400.611000", "113400.614000", "113400.617000", "113400.621000", "113400.624000", "113400.627000", "113440.555000", "113440.558000", "113440.561000", "113440.565000", "113440.568000", "113440.571000", "113440.574000", "113440.577000", "113440.581000", "113440.584000", "113440.587000", "113440.590000", "113440.593000", "113440.596000", "113440.600000", "113440.603000", "113440.606000", "113440.609000", "113440.612000", "113440.616000", "113509.009000", "113509.013000", "113509.016000", "113509.019000", "113509.022000", "113509.026000", "113509.029000", "113509.032000", "113509.035000", "113509.039000", "113509.044000", "113509.050000", "113509.053000", "113509.059000", "113509.062000"],
      "InstanceCreationTime": ["112800.566000", "112800.570000", "112800.573000", "112800.587000", "112800.590000", "112800.593000", "112800.596000", "112800.600000", "112800.603000", "112800.606000", "112800.609000", "112800.612000", "112800.616000", "112800.619000", "112800.622000", "112800.625000", "112800.628000", "112800.632000", "112800.635000", "112800.639000", "112800.642000", "112800.645000", "112840.555000", "112840.558000", "112840.561000", "112840.564000", "112840.574000", "112840.577000", "112840.580000", "112840.583000", "112840.587000", "112840.590000", "112840.593000", "112840.596000", "112840.599000", "112840.603000", "112840.606000", "112840.609000", "112840.612000", "112840.615000", "112840.619000", "112840.622000", "112920.554000", "112920.557000", "112920.560000", "112920.563000", "112920.566000", "112920.569000", "112920.573000", "112920.576000", "112920.579000", "112920.582000", "112920.585000", "112920.588000", "112920.591000", "112920.594000", "112920.597000", "112920.601000", "112920.604000", "112920.607000", "112920.610000", "112920.613000", "113000.558000", "113000.561000", "113000.564000", "113000.567000", "113000.570000", "113000.573000", "113000.576000", "113000.579000", "113000.583000", "113000.586000", "113000.589000", "113000.592000", "113000.595000", "113000.599000", "113000.602000", "113000.605000", "113000.608000", "113000.611000", "113000.614000", "113000.617000", "113040.556000", "113040.559000", "113040.562000", "113040.565000", "113040.569000", "113040.572000", "113040.575000", "113040.578000", "113040.581000", "113040.584000", "113040.588000", "113040.591000", "113040.594000", "113040.597000", "113040.601000", "113040.604000", "113040.622000", "113040.625000", "113040.628000", "113040.631000", "113120.554000", "113120.557000", "113120.560000", "113120.564000", "113120.567000", "113120.570000", "113120.574000", "113120.577000", "113120.580000", "113120.583000", "113120.587000", "113120.590000", "113120.593000", "113120.597000", "113120.600000", "113120.603000", "113120.606000", "113120.609000", "113120.613000", "113120.616000", "113200.556000", "113200.560000", "113200.563000", "113200.566000", "113200.569000", "113200.573000", "113200.576000", "113200.579000", "113200.582000", "113200.586000", "113200.589000", "113200.592000", "113200.596000", "113200.599000", "113200.603000", "113200.606000", "113200.609000", "113200.612000", "113200.615000", "113200.618000", "113240.555000", "113240.559000", "113240.562000", "113240.565000", "113240.568000", "113240.571000", "113240.574000", "113240.578000", "113240.581000", "113240.584000", "113240.588000", "113240.591000", "113240.594000", "113240.597000", "113240.600000", "113240.603000", "113240.606000", "113240.610000", "113240.613000", "113240.616000", "113320.554000", "113320.557000", "113320.560000", "113320.564000", "113320.567000", "113320.570000", "113320.573000", "113320.576000", "113320.579000", "113320.582000", "113320.585000", "113320.589000", "113320.592000", "113320.595000", "113320.598000", "113320.601000", "113320.604000", "113320.607000", "113320.610000", "113320.620000", "113400.557000", "113400.560000", "113400.563000", "113400.566000", "113400.579000", "113400.583000", "113400.586000", "113400.589000", "113400.592000", "113400.595000", "113400.598000", "113400.601000", "113400.605000", "113400.608000", "113400.611000", "113400.614000", "113400.617000", "113400.621000", "113400.624000", "113400.627000", "113440.555000", "113440.558000", "113440.561000", "113440.565000", "113440.568000", "113440.571000", "113440.574000", "113440.577000", "113440.581000", "113440.584000", "113440.587000", "113440.590000", "113440.593000", "113440.596000", "113440.600000", "113440.603000", "113440.606000", "113440.609000", "113440.612000", "113440.616000", "113509.009000", "113509.013000", "113509.016000", "113509.019000", "113509.022000", "113509.026000", "113509.029000", "113509.032000", "113509.035000", "113509.039000", "113509.044000", "113509.050000", "113509.053000", "113509.059000", "113509.062000"],
      "InstanceNumber": [1, 2, 3, 4, 5, 6, 7, 8, 9, 10, 11, 12, 13, 14, 15, 16, 17, 18, 19, 20, 21, 22, 23, 24, 25, 26, 27, 28, 29, 30, 31, 32, 33, 34, 35, 36, 37, 38, 39, 40, 41, 42, 43, 44, 45, 46, 47, 48, 49, 50, 51, 52, 53, 54, 55, 56, 57, 58, 59, 60, 61, 62, 63, 64, 65, 66, 67, 68, 69, 70, 71, 72, 73, 74, 75, 76, 77, 78, 79, 80, 81, 82, 83, 84, 85, 86, 87, 88, 89, 90, 91, 92, 93, 94, 95, 96, 97, 98, 99, 100, 101, 102, 103, 104, 105, 106, 107, 108, 109, 110, 111, 112, 113, 114, 115, 116, 117, 118, 119, 120, 121, 122, 123, 124, 125, 126, 127, 128, 129, 130, 131, 132, 133, 134, 135, 136, 137, 138, 139, 140, 141, 142, 143, 144, 145, 146, 147, 148, 149, 150, 151, 152, 153, 154, 155, 156, 157, 158, 159, 160, 161, 162, 163, 164, 165, 166, 167, 168, 169, 170, 171, 172, 173, 174, 175, 176, 177, 178, 179, 180, 181, 182, 183, 184, 185, 186, 187, 188, 189, 190, 191, 192, 193, 194, 195, 196, 197, 198, 199, 200, 201, 202, 203, 204, 205, 206, 207, 208, 209, 210, 211, 212, 213, 214, 215, 216, 217, 218, 219, 220, 221, 222, 223, 224, 225, 226, 227, 228, 229, 230, 231, 232, 233, 234, 235, 236, 237],
      "LargestImagePixelValue": [1687, 1558, 1670, 1566, 1614, 1566, 1612, 1532, 1531, 1532, 1509, 1540, 1777, 1549, 1802, 1545, 1582, 1593, 1566, 1556, 1543, 1580, 1566, 1638, 1568, 1579, 1583, 1562, 1555, 1528, 1590, 1586, 1586, 1619, 1567, 1576, 1600, 1741, 1637, 1550, 1561, 1559, 1662, 1578, 1618, 1588, 1597, 1582, 1563, 1578, 1605, 1534, 1568, 1585, 1564, 1595, 1774, 1534, 1623, 1591, 1566, 1583, 1552, 1591, 1603, 1600, 1777, 1657, 1614, 1591, 1604, 1578, 1637, 1677, 1601, 1795, 1589, 1571, 1565, 1574, 1690, 1773, 1666, 1594, 1587, 1607, 1654, 1626, 1610, 1578, 1615, 1742, 1774, 1591, 1617, 1617, 1607, 1731, 1608, 1742, 1647, 1636, 1643, 1567, 1647, 1588, 1801, 1627, 1639, 1582, 1638, 1651, 1671, 1650, 1625, 1653, 1625, 1658, 1636, 1608, 1822, 1608, 1635, 1597, 1640, 1664, 1657, 1720, 1603, 1631, 1714, 1588, 1565, 1596, 1751, 1542, 1640, 1572, 1613, 1583, 1578, 1678, 1569, 1668, 1783, 1594, 1612, 1563, 1645, 1592, 1660, 1600, 1584, 1612, 1684, 1760, 1597, 1611, 1638, 1618, 1706, 1585, 1642, 1626, 1668, 1620, 1622, 2038, 1602, 1646, 1588, 1632, 1784, 1688, 1662, 1600, 1624, 1590, 1558, 1586, 1591, 1556, 1786, 1801, 1621, 1658, 1715, 1655, 1634, 1654, 1603, 1617, 1668, 1606, 1631, 1637, 1672, 1589, 1662, 1730, 1869, 1637, 1695, 1639, 1619, 1638, 1685, 1659, 1591, 1629, 1688, 1664, 1649, 1626, 1630, 1638, 1573, 1638, 1670, 1542, 1620, 1688, 1635, 1596, 1608, 1619, 1604, 1631, 1603, 1576, 1614, 1640, 1620, 1568, 1584, 1617, 1847],
      "WindowCenter": [673.0, 672.0, 673.0, 672.0, 673.0, 672.0, 672.0, 670.0, 672.0, 672.0, 671.0, 672.0, 672.0, 670.0, 672.0, 670.0, 671.0, 671.0, 670.0, 671.0, 670.0, 671.0, 671.0, 671.0, 671.0, 670.0, 670.0, 671.0, 672.0, 672.0, 672.0, 670.0, 670.0, 669.0, 669.0, 670.0, 671.0, 672.0, 671.0, 672.0, 671.0, 673.0, 673.0, 672.0, 671.0, 671.0, 670.0, 671.0, 671.0, 671.0, 671.0, 670.0, 670.0, 671.0, 671.0, 670.0, 671.0, 669.0, 671.0, 671.0, 671.0, 671.0, 673.0, 674.0, 673.0, 671.0, 672.0, 670.0, 671.0, 671.0, 671.0, 671.0, 672.0, 672.0, 670.0, 670.0, 670.0, 671.0, 672.0, 671.0, 672.0, 672.0, 671.0, 670.0, 671.0, 671.0, 671.0, 671.0, 671.0, 671.0, 671.0, 671.0, 671.0, 671.0, 671.0, 670.0, 671.0, 672.0, 670.0, 671.0, 670.0, 671.0, 671.0, 673.0, 672.0, 671.0, 671.0, 671.0, 672.0, 672.0, 671.0, 671.0, 670.0, 669.0, 670.0, 671.0, 670.0, 671.0, 672.0, 672.0, 671.0, 669.0, 671.0, 673.0, 671.0, 671.0, 672.0, 672.0, 672.0, 671.0, 671.0, 669.0, 670.0, 671.0, 672.0, 671.0, 672.0, 672.0, 670.0, 671.0, 672.0, 672.0, 672.0, 671.0, 670.0, 669.0, 670.0, 671.0, 672.0, 672.0, 671.0, 669.0, 671.0, 672.0, 671.0, 671.0, 669.0, 669.0, 671.0, 673.0, 672.0, 670.0, 671.0, 670.0, 671.0, 672.0, 671.0, 671.0, 670.0, 671.0, 672.0, 671.0, 671.0, 670.0, 670.0, 671.0, 671.0, 670.0, 670.0, 672.0, 673.0, 673.0, 674.0, 672.0, 672.0, 672.0, 672.0, 671.0, 671.0, 672.0, 672.0, 670.0, 670.0, 670.0, 670.0, 670.0, 672.0, 672.0, 672.0, 671.0, 671.0, 672.0, 671.0, 671.0, 671.0, 672.0, 672.0, 672.0, 671.0, 671.0, 670.0, 669.0, 670.0, 671.0, 672.0, 673.0, 672.0, 671.0, 671.0, 670.0, 671.0, 669.0, 669.0, 669.0, 669.0, 671.0, 671.0, 672.0, 671.0, 670.0, 670.0, 672.0, 672.0, 673.0, 673.0, 671.0, 673.0],
      "WindowWidth": [1476.0, 1473.0, 1475.0, 1474.0, 1475.0, 1472.0, 1471.0, 1468.0, 1472.0, 1473.0, 1470.0, 1472.0, 1473.0, 1469.0, 1472.0, 1468.0, 1470.0, 1470.0, 1468.0, 1468.0, 1467.0, 1471.0, 1471.0, 1470.0, 1468.0, 1468.0, 1467.0, 1469.0, 1472.0, 1473.0, 1472.0, 1468.0, 1467.0, 1465.0, 1465.0, 1468.0, 1469.0, 1472.0, 1470.0, 1473.0, 1472.0, 1475.0, 1477.0, 1473.0, 1470.0, 1469.0, 1468.0, 1469.0, 1469.0, 1470.0, 1470.0, 1466.0, 1468.0, 1469.0, 1469.0, 1468.0, 1468.0, 1465.0, 1470.0, 1470.0, 1469.0, 1472.0, 1476.0, 1478.0, 1476.0, 1470.0, 1471.0, 1467.0, 1469.0, 1469.0, 1471.0, 1470.0, 1472.0, 1471.0, 1467.0, 1467.0, 1466.0, 1470.0, 1472.0, 1471.0, 1473.0, 1471.0, 1469.0, 1467.0, 1469.0, 1469.0, 1469.0, 1470.0, 1470.0, 1470.0, 1470.0, 1469.0, 1469.0, 1469.0, 1469.0, 1469.0, 1469.0, 1473.0, 1468.0, 1470.0, 1467.0, 1469.0, 1470.0, 1475.0, 1472.0, 1469.0, 1469.0, 1469.0, 1473.0, 1473.0, 1471.0, 1470.0, 1467.0, 1465.0, 1467.0, 1471.0, 1468.0, 1469.0, 1472.0, 1471.0, 1471.0, 1465.0, 1469.0, 1474.0, 1471.0, 1470.0, 1471.0, 1472.0, 1472.0, 1470.0, 1470.0, 1464.0, 1468.0, 1471.0, 1472.0, 1469.0, 1470.0, 1470.0, 1466.0, 1470.0, 1473.0, 1474.0, 1472.0, 1469.0, 1466.0, 1464.0, 1467.0, 1470.0, 1473.0, 1471.0, 1468.0, 1464.0, 1469.0, 1473.0, 1469.0, 1470.0, 1465.0, 1464.0, 1469.0, 1474.0, 1473.0, 1467.0, 1469.0, 1467.0, 1470.0, 1472.0, 1469.0, 1470.0, 1465.0, 1470.0, 1472.0, 1471.0, 1468.0, 1466.0, 1466.0, 1468.0, 1469.0, 1466.0, 1466.0, 1472.0, 1474.0, 1475.0, 1477.0, 1473.0, 1472.0, 1473.0, 1473.0, 1468.0, 1468.0, 1473.0, 1473.0, 1467.0, 1468.0, 1466.0, 1466.0, 1466.0, 1471.0, 1472.0, 1472.0, 1470.0, 1471.0, 1471.0, 1470.0, 1468.0, 1469.0, 1471.0, 1471.0, 1471.0, 1470.0, 1468.0, 1466.0, 1464.0, 1467.0, 1469.0, 1471.0, 1474.0, 1474.0, 1471.0, 1469.0, 1467.0, 1469.0, 1463.0, 1463.0, 1463.0, 1464.0, 1468.0, 1470.0, 1471.0, 1468.0, 1468.0, 1466.0, 1470.0, 1473.0, 1476.0, 1474.0, 1470.0, 1473.0]
    },
    "slices": {}
  }
}