{
  "AcquisitionMatrixPE": 70,
  "AcquisitionNumber": 1,
  "AcquisitionTime": "09:14:37.277500",
  "BandwidthPerPixelPhaseEncode": 38.873,
  "BaseResolution": 70,
  "BodyPartExamined": "HEAD",
  "ConsistencyInfo": "N4_VE11B_LATEST_20150530",
  "ConversionSoftware": "dcm2niix",
  "ConversionSoftwareVersion": "v1.0.20190410  GCC6.3.0",
  "DerivedVendorReportedEchoSpacing": 0.000489996,
  "DeviceSerialNumber": "66088",
  "DwellTime": 2.9e-06,
  "EchoTime": 0.03,
  "EchoTrainLength": 53,
  "EffectiveEchoSpacing": 0.000367497,
  "FlipAngle": 90,
  "ImageOrientationPatientDICOM": [0.99903, 0.0204486, 0.0389942, -0.0017436, 0.903294, -0.429018],
  "ImageType": [
    "ORIGINAL",
    "PRIMARY",
    "M",
    "ND",
    "NORM",
    "MOSAIC"
],
  "ImagingFrequency": 123.191,
  "InPlanePhaseEncodingDirectionDICOM": "COL",
  "InstitutionAddress": "Street_StreetNo_City_District_IR_ZIP",
  "InstitutionName": "NBML",
  "InstitutionalDepartmentName": "Department",
  "MRAcquisitionType": "2D",
  "MagneticFieldStrength": 3,
  "Manufacturer": "Siemens",
  "ManufacturersModelName": "Prisma",
  "Modality": "MR",
  "ParallelReductionFactorInPlane": 2,
  "PartialFourier": 1,
  "PatientPosition": "HFS",
  "PercentPhaseFOV": 100,
  "PhaseEncodingDirection": "j-",
  "PhaseEncodingSteps": 105,
  "PhaseOversampling": 0.5,
  "PhaseResolution": 1,
  "PixelBandwidth": 2465,
  "ProcedureStepDescription": "NBML_Project_P-96169-Ebrahiminiya",
  "ProtocolName": "ep2d_p2_Task_3.5_measurment:237",
  "PulseSequenceDetails": "%SiemensSeq%_ep2d_pace",
  "ReceiveCoilActiveElements": "HC1-7;NC1",
  "ReceiveCoilName": "HeadNeck_64",
  "ReconMatrixPE": 70,
  "RefLinesPE": 24,
  "RepetitionTime": 2,
  "SAR": 0.0942223,
  "ScanOptions": "FS",
  "ScanningSequence": "EP",
  "SequenceName": "_epfid2d1_70",
  "SequenceVariant": "SK_OSP",
  "SeriesDescription": "ep2d_p2_Task_3.5_measurment:237",
  "SeriesNumber": 3,
  "ShimSetting": [2617, -4440, -3194, 457, 23, 103, -160, 62],
  "SliceThickness": 3.5,
  "SliceTiming": [0.99, 0, 1.05, 0.06, 1.1075, 0.1175, 1.165, 0.175, 1.225, 0.235, 1.2825, 0.2925, 1.34, 0.35, 1.3975, 0.41, 1.4575, 0.4675, 1.515, 0.525, 1.5725, 0.5825, 1.6325, 0.6425, 1.69, 0.7, 1.7475, 0.7575, 1.8075, 0.8175, 1.865, 0.875, 1.9225, 0.9325],
  "SoftwareVersions": "syngo_MR_E11",
  "SpacingBetweenSlices": 3.85,
  "StationName": "AWP66088",
  "TaskName": "categorySelectivity",
  "TotalReadoutTime": 0.0253573,
  "TxRefAmp": 274.531,
  "dcmmeta_affine": [
    [-3.539421319961548, -0.006177311297506094, 0.1693846434354782, 125.55367279052734],
    [-0.07244646549224854, 3.200242519378662, -1.6498558521270752, -93.78807830810547],
    [0.13815072178840637, 1.5199496746063232, 3.474447250366211, -93.92389678955078],
    [0.0, 0.0, 0.0, 1.0]
],
  "dcmmeta_reorient_transform": [
    [0.0, -1.0, 0.0, 69.0],
    [1.0, 0.0, 0.0, 0.0],
    [0.0, 0.0, 1.0, 0.0],
    [0.0, 0.0, 0.0, 1.0]
],
  "dcmmeta_shape": [70, 70, 34, 237],
  "dcmmeta_slice_dim": 2,
  "dcmmeta_version": 0.6,
  "global": {
    "const": {
      "AccessionNumber": "M.BRZ",
      "AcquisitionMatrix": [70, 0, 0, 70],
      "AngioFlag": "N",
      "BitsAllocated": 16,
      "BitsStored": 12,
      "BodyPartExamined": "HEAD",
      "Columns": 420,
      "EchoNumbers": 1,
      "EchoTime": 30.0,
      "EchoTrainLength": 53,
      "FlipAngle": 90.0,
      "HighBit": 11,
      "ImageOrientationPatient": [0.99903018505438, 0.02044859874886, 0.0389941554522, -0.0017435958783, 0.90329423477204, -0.4290180477568],
      "ImagePositionPatient": [-743.44512552016, -699.74921436458, 252.76744638025],
      "ImageType": [
        "ORIGINAL",
        "PRIMARY",
        "M",
        "ND",
        "NORM",
        "MOSAIC"
],
      "ImagedNucleus": "1H",
      "ImagingFrequency": 123.191114,
      "InPlanePhaseEncodingDirection": "COL",
      "MRAcquisitionType": "2D",
      "MagneticFieldStrength": 3.0,
      "Manufacturer": "SIEMENS",
      "ManufacturerModelName": "Prisma",
      "Modality": "MR",
      "NumberOfAverages": 1.0,
      "NumberOfPhaseEncodingSteps": 105,
      "PercentPhaseFieldOfView": 100.0,
      "PercentSampling": 100.0,
      "PerformedProcedureStepStartTime": "085708.053000",
      "PhotometricInterpretation": "MONOCHROME2",
      "PixelBandwidth": 2465.0,
      "PixelRepresentation": 0,
      "PixelSpacing": [3.542857170105, 3.542857170105],
      "ProtocolName": "ep2d_p2_Task_3.5_measurment:237",
      "RepetitionTime": 2000.0,
      "Rows": 420,
      "SAR": 0.09422229662693,
      "SamplesPerPixel": 1,
      "ScanOptions": "FS",
      "ScanningSequence": "EP",
      "SequenceName": "*epfid2d1_70",
      "SequenceVariant": [
        "SK",
        "OSP"
],
      "SeriesDescription": "ep2d_p2_Task_3.5_measurment:237",
      "SeriesNumber": 3,
      "SeriesTime": "091534.855000",
      "SliceLocation": -39.046742777036,
      "SliceThickness": 3.5,
      "SmallestImagePixelValue": 0,
      "SoftwareVersions": "syngo MR E11",
      "SpacingBetweenSlices": 3.8499999329472,
      "SpecificCharacterSet": "ISO_IR 100",
      "StudyID": "1",
      "StudyTime": "085707.911000",
      "TransmitCoilName": "Body",
      "VariableFlipAngleFlag": "N",
      "WindowCenterWidthExplanation": "Algo1",
      "dBdt": 0.0},
    "slices": {}
  },
  "time": {
    "samples": {
      "AcquisitionNumber": [1, 2, 3, 4, 5, 6, 7, 8, 9, 10, 11, 12, 13, 14, 15, 16, 17, 18, 19, 20, 21, 22, 23, 24, 25, 26, 27, 28, 29, 30, 31, 32, 33, 34, 35, 36, 37, 38, 39, 40, 41, 42, 43, 44, 45, 46, 47, 48, 49, 50, 51, 52, 53, 54, 55, 56, 57, 58, 59, 60, 61, 62, 63, 64, 65, 66, 67, 68, 69, 70, 71, 72, 73, 74, 75, 76, 77, 78, 79, 80, 81, 82, 83, 84, 85, 86, 87, 88, 89, 90, 91, 92, 93, 94, 95, 96, 97, 98, 99, 100, 101, 102, 103, 104, 105, 106, 107, 108, 109, 110, 111, 112, 113, 114, 115, 116, 117, 118, 119, 120, 121, 122, 123, 124, 125, 126, 127, 128, 129, 130, 131, 132, 133, 134, 135, 136, 137, 138, 139, 140, 141, 142, 143, 144, 145, 146, 147, 148, 149, 150, 151, 152, 153, 154, 155, 156, 157, 158, 159, 160, 161, 162, 163, 164, 165, 166, 167, 168, 169, 170, 171, 172, 173, 174, 175, 176, 177, 178, 179, 180, 181, 182, 183, 184, 185, 186, 187, 188, 189, 190, 191, 192, 193, 194, 195, 196, 197, 198, 199, 200, 201, 202, 203, 204, 205, 206, 207, 208, 209, 210, 211, 212, 213, 214, 215, 216, 217, 218, 219, 220, 221, 222, 223, 224, 225, 226, 227, 228, 229, 230, 231, 232, 233, 234, 235, 236, 237],
      "AcquisitionTime": ["091437.277500", "091439.277500", "091441.277500", "091443.277500", "091445.277500", "091447.277500", "091449.277500", "091451.277500", "091453.277500", "091455.277500", "091457.277500", "091459.277500", "091501.277500", "091503.277500", "091505.277500", "091507.277500", "091509.277500", "091511.277500", "091513.277500", "091515.277500", "091517.277500", "091519.277500", "091521.277500", "091523.277500", "091525.277500", "091527.277500", "091529.277500", "091531.277500", "091533.277500", "091535.277500", "091537.277500", "091539.277500", "091541.277500", "091543.277500", "091545.277500", "091547.277500", "091549.277500", "091551.277500", "091553.277500", "091555.277500", "091557.277500", "091559.277500", "091601.277500", "091603.277500", "091605.277500", "091607.277500", "091609.277500", "091611.277500", "091613.277500", "091615.277500", "091617.277500", "091619.277500", "091621.277500", "091623.277500", "091625.277500", "091627.277500", "091629.277500", "091631.277500", "091633.277500", "091635.277500", "091637.277500", "091639.277500", "091641.277500", "091643.277500", "091645.277500", "091647.277500", "091649.277500", "091651.277500", "091653.277500", "091655.277500", "091657.277500", "091659.277500", "091701.277500", "091703.277500", "091705.277500", "091707.277500", "091709.277500", "091711.277500", "091713.277500", "091715.277500", "091717.277500", "091719.277500", "091721.277500", "091723.277500", "091725.277500", "091727.277500", "091729.277500", "091731.277500", "091733.277500", "091735.277500", "091737.277500", "091739.277500", "091741.277500", "091743.277500", "091745.277500", "091747.277500", "091749.277500", "091751.277500", "091753.277500", "091755.277500", "091757.277500", "091759.277500", "091801.277500", "091803.277500", "091805.277500", "091807.277500", "091809.277500", "091811.277500", "091813.277500", "091815.277500", "091817.277500", "091819.277500", "091821.277500", "091823.277500", "091825.277500", "091827.277500", "091829.277500", "091831.277500", "091833.277500", "091835.277500", "091837.277500", "091839.277500", "091841.277500", "091843.277500", "091845.277500", "091847.277500", "091849.277500", "091851.277500", "091853.277500", "091855.277500", "091857.277500", "091859.277500", "091901.277500", "091903.277500", "091905.277500", "091907.277500", "091909.277500", "091911.277500", "091913.277500", "091915.277500", "091917.277500", "091919.277500", "091921.277500", "091923.277500", "091925.277500", "091927.277500", "091929.277500", "091931.277500", "091933.277500", "091935.277500", "091937.277500", "091939.277500", "091941.277500", "091943.277500", "091945.277500", "091947.277500", "091949.277500", "091951.277500", "091953.277500", "091955.277500", "091957.277500", "091959.277500", "092001.277500", "092003.277500", "092005.277500", "092007.277500", "092009.277500", "092011.277500", "092013.277500", "092015.277500", "092017.277500", "092019.277500", "092021.277500", "092023.277500", "092025.277500", "092027.277500", "092029.277500", "092031.277500", "092033.277500", "092035.277500", "092037.277500", "092039.277500", "092041.277500", "092043.277500", "092045.277500", "092047.277500", "092049.277500", "092051.277500", "092053.277500", "092055.277500", "092057.277500", "092059.277500", "092101.277500", "092103.277500", "092105.277500", "092107.277500", "092109.277500", "092111.277500", "092113.277500", "092115.277500", "092117.277500", "092119.277500", "092121.277500", "092123.277500", "092125.277500", "092127.277500", "092129.277500", "092131.277500", "092133.277500", "092135.277500", "092137.277500", "092139.277500", "092141.277500", "092143.277500", "092145.277500", "092147.277500", "092149.277500", "092151.277500", "092153.277500", "092155.277500", "092157.277500", "092159.277500", "092201.277500", "092203.277500", "092205.277500", "092207.277500", "092209.277500", "092211.277500", "092213.277500", "092215.277500", "092217.277500", "092219.277500", "092221.277500", "092223.277500", "092225.277500", "092227.277500", "092229.277500"],
      "ContentTime": ["091534.862000", "091534.878000", "091534.882000", "091534.885000", "091534.889000", "091534.895000", "091534.899000", "091534.903000", "091534.906000", "091534.909000", "091534.918000", "091534.924000", "091534.927000", "091534.931000", "091534.934000", "091534.937000", "091534.940000", "091534.944000", "091534.947000", "091534.950000", "091534.954000", "091534.957000", "091534.961000", "091534.964000", "091534.967000", "091534.971000", "091534.974000", "091534.977000", "091614.851000", "091614.854000", "091614.857000", "091614.870000", "091614.873000", "091614.876000", "091614.879000", "091614.882000", "091614.886000", "091614.889000", "091614.892000", "091614.896000", "091614.899000", "091614.903000", "091614.906000", "091614.909000", "091614.912000", "091614.915000", "091614.918000", "091614.922000", "091654.849000", "091654.859000", "091654.863000", "091654.866000", "091654.869000", "091654.872000", "091654.875000", "091654.879000", "091654.882000", "091654.885000", "091654.889000", "091654.892000", "091654.895000", "091654.898000", "091654.901000", "091654.905000", "091654.908000", "091654.911000", "091654.914000", "091654.918000", "091734.850000", "091734.853000", "091734.857000", "091734.860000", "091734.863000", "091734.866000", "091734.871000", "091734.874000", "091734.877000", "091734.880000", "091734.883000", "091734.886000", "091734.890000", "091734.893000", "091734.896000", "091734.899000", "091734.902000", "091734.905000", "091734.922000", "091734.925000", "091814.850000", "091814.854000", "091814.864000", "091814.867000", "091814.871000", "091814.874000", "091814.877000", "091814.880000", "091814.883000", "091814.887000", "091814.890000", "091814.893000", "091814.897000", "091814.900000", "091814.903000", "091814.906000", "091814.909000", "091814.913000", "091814.916000", "091814.919000", "091854.850000", "091854.854000", "091854.857000", "091854.860000", "091854.863000", "091854.866000", "091854.869000", "091854.872000", "091854.875000", "091854.878000", "091854.881000", "091854.885000", "091854.888000", "091854.891000", "091854.894000", "091854.897000", "091854.901000", "091854.904000", "091854.907000", "091854.910000", "091934.851000", "091934.855000", "091934.858000", "091934.861000", "091934.864000", "091934.867000", "091934.870000", "091934.873000", "091934.877000", "091934.880000", "091934.884000", "091934.888000", "091934.891000", "091934.894000", "091934.897000", "091934.905000", "091934.908000", "091934.911000", "091934.914000", "091934.917000", "092014.851000", "092014.854000", "092014.860000", "092014.864000", "092014.867000", "092014.871000", "092014.874000", "092014.877000", "092014.881000", "092014.886000", "092014.890000", "092014.894000", "092014.905000", "092014.909000", "092014.912000", "092014.916000", "092014.920000", "092014.924000", "092014.928000", "092014.934000", "092054.850000", "092054.863000", "092054.867000", "092054.870000", "092054.873000", "092054.876000", "092054.880000", "092054.883000", "092054.886000", "092054.890000", "092054.893000", "092054.896000", "092054.900000", "092054.903000", "092054.906000", "092054.909000", "092054.913000", "092054.916000", "092054.920000", "092054.923000", "092134.850000", "092134.854000", "092134.857000", "092134.860000", "092134.863000", "092134.867000", "092134.870000", "092134.873000", "092134.876000", "092134.879000", "092134.883000", "092134.893000", "092134.896000", "092134.900000", "092134.906000", "092134.909000", "092134.912000", "092134.915000", "092134.918000", "092134.922000", "092214.850000", "092214.854000", "092214.857000", "092214.860000", "092214.863000", "092214.867000", "092214.870000", "092214.873000", "092214.876000", "092214.879000", "092214.882000", "092214.886000", "092214.889000", "092214.892000", "092214.896000", "092214.899000", "092214.902000", "092214.905000", "092214.908000", "092214.911000", "092231.153000", "092231.156000", "092231.160000", "092231.163000", "092231.166000", "092231.170000", "092231.175000", "092231.179000", "092231.183000"],
      "InstanceCreationTime": ["091534.862000", "091534.878000", "091534.882000", "091534.885000", "091534.889000", "091534.895000", "091534.899000", "091534.903000", "091534.906000", "091534.909000", "091534.918000", "091534.924000", "091534.927000", "091534.931000", "091534.934000", "091534.937000", "091534.940000", "091534.944000", "091534.947000", "091534.950000", "091534.954000", "091534.957000", "091534.961000", "091534.964000", "091534.967000", "091534.971000", "091534.974000", "091534.977000", "091614.851000", "091614.854000", "091614.857000", "091614.870000", "091614.873000", "091614.876000", "091614.879000", "091614.882000", "091614.886000", "091614.889000", "091614.892000", "091614.896000", "091614.899000", "091614.903000", "091614.906000", "091614.909000", "091614.912000", "091614.915000", "091614.918000", "091614.922000", "091654.849000", "091654.859000", "091654.863000", "091654.866000", "091654.869000", "091654.872000", "091654.875000", "091654.879000", "091654.882000", "091654.885000", "091654.889000", "091654.892000", "091654.895000", "091654.898000", "091654.901000", "091654.905000", "091654.908000", "091654.911000", "091654.914000", "091654.918000", "091734.850000", "091734.853000", "091734.857000", "091734.860000", "091734.863000", "091734.866000", "091734.871000", "091734.874000", "091734.877000", "091734.880000", "091734.883000", "091734.886000", "091734.890000", "091734.893000", "091734.896000", "091734.899000", "091734.902000", "091734.905000", "091734.922000", "091734.925000", "091814.850000", "091814.854000", "091814.864000", "091814.867000", "091814.871000", "091814.874000", "091814.877000", "091814.880000", "091814.883000", "091814.887000", "091814.890000", "091814.893000", "091814.897000", "091814.900000", "091814.903000", "091814.906000", "091814.909000", "091814.913000", "091814.916000", "091814.919000", "091854.850000", "091854.854000", "091854.857000", "091854.860000", "091854.863000", "091854.866000", "091854.869000", "091854.872000", "091854.875000", "091854.878000", "091854.881000", "091854.885000", "091854.888000", "091854.891000", "091854.894000", "091854.897000", "091854.901000", "091854.904000", "091854.907000", "091854.910000", "091934.851000", "091934.855000", "091934.858000", "091934.861000", "091934.864000", "091934.867000", "091934.870000", "091934.873000", "091934.877000", "091934.880000", "091934.884000", "091934.888000", "091934.891000", "091934.894000", "091934.897000", "091934.905000", "091934.908000", "091934.911000", "091934.914000", "091934.917000", "092014.851000", "092014.854000", "092014.860000", "092014.864000", "092014.867000", "092014.871000", "092014.874000", "092014.877000", "092014.881000", "092014.886000", "092014.890000", "092014.894000", "092014.905000", "092014.909000", "092014.912000", "092014.916000", "092014.920000", "092014.924000", "092014.928000", "092014.934000", "092054.850000", "092054.863000", "092054.867000", "092054.870000", "092054.873000", "092054.876000", "092054.880000", "092054.883000", "092054.886000", "092054.890000", "092054.893000", "092054.896000", "092054.900000", "092054.903000", "092054.906000", "092054.909000", "092054.913000", "092054.916000", "092054.920000", "092054.923000", "092134.850000", "092134.854000", "092134.857000", "092134.860000", "092134.863000", "092134.867000", "092134.870000", "092134.873000", "092134.876000", "092134.879000", "092134.883000", "092134.893000", "092134.896000", "092134.900000", "092134.906000", "092134.909000", "092134.912000", "092134.915000", "092134.918000", "092134.922000", "092214.850000", "092214.854000", "092214.857000", "092214.860000", "092214.863000", "092214.867000", "092214.870000", "092214.873000", "092214.876000", "092214.879000", "092214.882000", "092214.886000", "092214.889000", "092214.892000", "092214.896000", "092214.899000", "092214.902000", "092214.905000", "092214.908000", "092214.911000", "092231.153000", "092231.156000", "092231.160000", "092231.163000", "092231.166000", "092231.170000", "092231.175000", "092231.179000", "092231.183000"],
      "InstanceNumber": [1, 2, 3, 4, 5, 6, 7, 8, 9, 10, 11, 12, 13, 14, 15, 16, 17, 18, 19, 20, 21, 22, 23, 24, 25, 26, 27, 28, 29, 30, 31, 32, 33, 34, 35, 36, 37, 38, 39, 40, 41, 42, 43, 44, 45, 46, 47, 48, 49, 50, 51, 52, 53, 54, 55, 56, 57, 58, 59, 60, 61, 62, 63, 64, 65, 66, 67, 68, 69, 70, 71, 72, 73, 74, 75, 76, 77, 78, 79, 80, 81, 82, 83, 84, 85, 86, 87, 88, 89, 90, 91, 92, 93, 94, 95, 96, 97, 98, 99, 100, 101, 102, 103, 104, 105, 106, 107, 108, 109, 110, 111, 112, 113, 114, 115, 116, 117, 118, 119, 120, 121, 122, 123, 124, 125, 126, 127, 128, 129, 130, 131, 132, 133, 134, 135, 136, 137, 138, 139, 140, 141, 142, 143, 144, 145, 146, 147, 148, 149, 150, 151, 152, 153, 154, 155, 156, 157, 158, 159, 160, 161, 162, 163, 164, 165, 166, 167, 168, 169, 170, 171, 172, 173, 174, 175, 176, 177, 178, 179, 180, 181, 182, 183, 184, 185, 186, 187, 188, 189, 190, 191, 192, 193, 194, 195, 196, 197, 198, 199, 200, 201, 202, 203, 204, 205, 206, 207, 208, 209, 210, 211, 212, 213, 214, 215, 216, 217, 218, 219, 220, 221, 222, 223, 224, 225, 226, 227, 228, 229, 230, 231, 232, 233, 234, 235, 236, 237],
      "LargestImagePixelValue": [1972, 2348, 2594, 1889, 1927, 2598, 3012, 1858, 1918, 2441, 1923, 1912, 2750, 1910, 2606, 2322, 2030, 2584, 2236, 1950, 2450, 2605, 1886, 2002, 2221, 2554, 2241, 2234, 2051, 2526, 2000, 2866, 2165, 2616, 2629, 1883, 2001, 2296, 2530, 2166, 1873, 2037, 2317, 1990, 2698, 2306, 1870, 2099, 2345, 2208, 2560, 2028, 2104, 2371, 2391, 2608, 1888, 2044, 2496, 2074, 1849, 2228, 2668, 2082, 1870, 2113, 2586, 1866, 1986, 2622, 2591, 1896, 1960, 2391, 2592, 3177, 1815, 1929, 2301, 2098, 1975, 2192, 2622, 1833, 2085, 2832, 1854, 1967, 2743, 1875, 1954, 2725, 1890, 2148, 2370, 2180, 1836, 2145, 2682, 1931, 1990, 2249, 2152, 2116, 2290, 2011, 1903, 2322, 2298, 2327, 2058, 2569, 2553, 2343, 1918, 1990, 2675, 1827, 2049, 2333, 2198, 2025, 2197, 2386, 2080, 2335, 2255, 2218, 2401, 2568, 1889, 1939, 2624, 2480, 1987, 2049, 2445, 1941, 1854, 2195, 2596, 2018, 2290, 2590, 1854, 1957, 2279, 1834, 2061, 3194, 2109, 1909, 2160, 1964, 2030, 2168, 1955, 2075, 2035, 2622, 1817, 2090, 2086, 3074, 2233, 2099, 2521, 1829, 2014, 2009, 2436, 1833, 2133, 2437, 1990, 2013, 2191, 2345, 1845, 1950, 2510, 2438, 1839, 2046, 2320, 2140, 1909, 2037, 2105, 2416, 2300, 1964, 2114, 2808, 2319, 1865, 1987, 2398, 1832, 1928, 2141, 2170, 2192, 2270, 2322, 2427, 1907, 2128, 2537, 1871, 1975, 2447, 1930, 2118, 2230, 1890, 2088, 2601, 3138, 1930, 2099, 2150, 1954, 2145, 2351, 2432, 1934, 2130, 2321, 2549, 1946, 1923, 2441, 1877, 2206, 2285, 1835],
      "WindowCenter": [735.0, 735.0, 735.0, 734.0, 734.0, 734.0, 735.0, 732.0, 733.0, 734.0, 734.0, 734.0, 735.0, 734.0, 735.0, 735.0, 734.0, 735.0, 735.0, 734.0, 734.0, 734.0, 733.0, 734.0, 734.0, 735.0, 734.0, 734.0, 734.0, 736.0, 735.0, 735.0, 733.0, 733.0, 734.0, 733.0, 733.0, 733.0, 733.0, 733.0, 733.0, 734.0, 734.0, 734.0, 735.0, 734.0, 733.0, 733.0, 733.0, 733.0, 734.0, 733.0, 733.0, 733.0, 733.0, 733.0, 733.0, 733.0, 734.0, 733.0, 733.0, 734.0, 735.0, 733.0, 733.0, 733.0, 734.0, 733.0, 734.0, 735.0, 734.0, 732.0, 733.0, 733.0, 733.0, 734.0, 731.0, 732.0, 733.0, 733.0, 733.0, 733.0, 734.0, 733.0, 734.0, 735.0, 733.0, 733.0, 734.0, 732.0, 732.0, 734.0, 732.0, 733.0, 733.0, 733.0, 732.0, 733.0, 734.0, 732.0, 732.0, 733.0, 733.0, 733.0, 733.0, 733.0, 733.0, 733.0, 733.0, 734.0, 734.0, 734.0, 733.0, 732.0, 732.0, 732.0, 734.0, 732.0, 732.0, 733.0, 733.0, 733.0, 733.0, 733.0, 733.0, 734.0, 734.0, 733.0, 734.0, 734.0, 732.0, 732.0, 733.0, 733.0, 732.0, 732.0, 733.0, 732.0, 732.0, 733.0, 734.0, 733.0, 734.0, 734.0, 732.0, 732.0, 734.0, 733.0, 732.0, 733.0, 731.0, 731.0, 732.0, 732.0, 732.0, 732.0, 732.0, 733.0, 733.0, 734.0, 732.0, 733.0, 733.0, 734.0, 732.0, 732.0, 732.0, 731.0, 732.0, 732.0, 733.0, 732.0, 733.0, 733.0, 732.0, 732.0, 732.0, 733.0, 733.0, 733.0, 733.0, 733.0, 732.0, 732.0, 732.0, 732.0, 732.0, 733.0, 733.0, 733.0, 733.0, 733.0, 733.0, 734.0, 733.0, 732.0, 732.0, 734.0, 732.0, 732.0, 733.0, 733.0, 734.0, 733.0, 733.0, 733.0, 732.0, 734.0, 734.0, 733.0, 733.0, 734.0, 732.0, 733.0, 733.0, 732.0, 734.0, 734.0, 734.0, 732.0, 732.0, 733.0, 733.0, 733.0, 733.0, 733.0, 732.0, 733.0, 733.0, 733.0, 732.0, 733.0, 733.0, 733.0, 733.0, 734.0, 733.0],
      "WindowWidth": [1643.0, 1642.0, 1644.0, 1637.0, 1638.0, 1641.0, 1644.0, 1633.0, 1636.0, 1642.0, 1637.0, 1638.0, 1646.0, 1640.0, 1645.0, 1642.0, 1640.0, 1645.0, 1643.0, 1637.0, 1641.0, 1642.0, 1637.0, 1638.0, 1640.0, 1643.0, 1641.0, 1638.0, 1639.0, 1646.0, 1641.0, 1644.0, 1637.0, 1638.0, 1639.0, 1634.0, 1635.0, 1637.0, 1637.0, 1635.0, 1636.0, 1637.0, 1638.0, 1638.0, 1644.0, 1641.0, 1636.0, 1635.0, 1636.0, 1637.0, 1641.0, 1636.0, 1636.0, 1636.0, 1636.0, 1638.0, 1634.0, 1637.0, 1640.0, 1636.0, 1635.0, 1640.0, 1642.0, 1637.0, 1635.0, 1636.0, 1642.0, 1635.0, 1637.0, 1642.0, 1641.0, 1633.0, 1633.0, 1637.0, 1638.0, 1641.0, 1628.0, 1632.0, 1637.0, 1636.0, 1634.0, 1635.0, 1640.0, 1635.0, 1639.0, 1644.0, 1633.0, 1634.0, 1641.0, 1633.0, 1633.0, 1639.0, 1632.0, 1634.0, 1635.0, 1634.0, 1632.0, 1637.0, 1640.0, 1632.0, 1632.0, 1636.0, 1634.0, 1634.0, 1637.0, 1637.0, 1634.0, 1636.0, 1637.0, 1639.0, 1637.0, 1639.0, 1636.0, 1633.0, 1631.0, 1633.0, 1639.0, 1632.0, 1633.0, 1635.0, 1635.0, 1634.0, 1635.0, 1637.0, 1636.0, 1639.0, 1638.0, 1637.0, 1638.0, 1640.0, 1631.0, 1632.0, 1636.0, 1635.0, 1631.0, 1632.0, 1637.0, 1632.0, 1632.0, 1637.0, 1639.0, 1635.0, 1638.0, 1640.0, 1631.0, 1632.0, 1638.0, 1633.0, 1633.0, 1638.0, 1629.0, 1628.0, 1632.0, 1630.0, 1632.0, 1633.0, 1632.0, 1634.0, 1636.0, 1639.0, 1632.0, 1633.0, 1633.0, 1640.0, 1633.0, 1631.0, 1633.0, 1628.0, 1630.0, 1631.0, 1637.0, 1632.0, 1634.0, 1635.0, 1632.0, 1632.0, 1633.0, 1637.0, 1632.0, 1633.0, 1636.0, 1636.0, 1629.0, 1630.0, 1631.0, 1631.0, 1632.0, 1635.0, 1635.0, 1635.0, 1636.0, 1634.0, 1635.0, 1640.0, 1633.0, 1629.0, 1632.0, 1638.0, 1631.0, 1631.0, 1633.0, 1636.0, 1638.0, 1636.0, 1636.0, 1635.0, 1632.0, 1637.0, 1640.0, 1632.0, 1635.0, 1638.0, 1631.0, 1634.0, 1635.0, 1632.0, 1637.0, 1640.0, 1640.0, 1630.0, 1632.0, 1636.0, 1635.0, 1635.0, 1635.0, 1634.0, 1630.0, 1635.0, 1636.0, 1637.0, 1630.0, 1632.0, 1637.0, 1633.0, 1636.0, 1637.0, 1632.0]
    },
    "slices": {}
  }
}