{
  "AcquisitionMatrixPE": 70,
  "AcquisitionNumber": 1,
  "AcquisitionTime": "10:08:20.292500",
  "BandwidthPerPixelPhaseEncode": 38.873,
  "BaseResolution": 70,
  "BodyPartExamined": "HEAD",
  "ConsistencyInfo": "N4_VE11B_LATEST_20150530",
  "ConversionSoftware": "dcm2niix",
  "ConversionSoftwareVersion": "v1.0.20190410  GCC6.3.0",
  "DerivedVendorReportedEchoSpacing": 0.000489996,
  "DeviceSerialNumber": "66088",
  "DwellTime": 2.9e-06,
  "EchoTime": 0.03,
  "EchoTrainLength": 53,
  "EffectiveEchoSpacing": 0.000367497,
  "FlipAngle": 90,
  "ImageOrientationPatientDICOM": [0.99903, 0.0204486, 0.0389942, -0.0017436, 0.903294, -0.429018],
  "ImageType": [
    "ORIGINAL",
    "PRIMARY",
    "M",
    "ND",
    "NORM",
    "MOSAIC"
],
  "ImagingFrequency": 123.191,
  "InPlanePhaseEncodingDirectionDICOM": "COL",
  "InstitutionAddress": "Street_StreetNo_City_District_IR_ZIP",
  "InstitutionName": "NBML",
  "InstitutionalDepartmentName": "Department",
  "MRAcquisitionType": "2D",
  "MagneticFieldStrength": 3,
  "Manufacturer": "Siemens",
  "ManufacturersModelName": "Prisma",
  "Modality": "MR",
  "ParallelReductionFactorInPlane": 2,
  "PartialFourier": 1,
  "PatientPosition": "HFS",
  "PercentPhaseFOV": 100,
  "PhaseEncodingDirection": "j-",
  "PhaseEncodingSteps": 105,
  "PhaseOversampling": 0.5,
  "PhaseResolution": 1,
  "PixelBandwidth": 2465,
  "ProcedureStepDescription": "NBML_Project_P-96169-Ebrahiminiya",
  "ProtocolName": "ep2d_p2_Task_3.5_measurment:237",
  "PulseSequenceDetails": "%SiemensSeq%_ep2d_pace",
  "ReceiveCoilActiveElements": "HC1-7;NC1",
  "ReceiveCoilName": "HeadNeck_64",
  "ReconMatrixPE": 70,
  "RefLinesPE": 24,
  "RepetitionTime": 2,
  "SAR": 0.0942223,
  "ScanOptions": "FS",
  "ScanningSequence": "EP",
  "SequenceName": "_epfid2d1_70",
  "SequenceVariant": "SK_OSP",
  "SeriesDescription": "ep2d_p2_Task_3.5_measurment:237",
  "SeriesNumber": 9,
  "ShimSetting": [2617, -4440, -3194, 457, 23, 103, -160, 62],
  "SliceThickness": 3.5,
  "SliceTiming": [0.99, 0, 1.0475, 0.0575, 1.105, 0.115, 1.165, 0.175, 1.2225, 0.2325, 1.28, 0.29, 1.34, 0.35, 1.3975, 0.4075, 1.455, 0.465, 1.5125, 0.5225, 1.5725, 0.5825, 1.63, 0.64, 1.6875, 0.6975, 1.7475, 0.7575, 1.805, 0.815, 1.8625, 0.8725, 1.92, 0.93],
  "SoftwareVersions": "syngo_MR_E11",
  "SpacingBetweenSlices": 3.85,
  "StationName": "AWP66088",
  "TaskName": "categorySelectivity",
  "TotalReadoutTime": 0.0253573,
  "TxRefAmp": 274.531,
  "dcmmeta_affine": [
    [-3.539421319961548, -0.006177311297506094, 0.1693846434354782, 125.55367279052734],
    [-0.07244646549224854, 3.200242519378662, -1.6498558521270752, -93.78807830810547],
    [0.13815072178840637, 1.5199496746063232, 3.474447250366211, -93.92389678955078],
    [0.0, 0.0, 0.0, 1.0]
],
  "dcmmeta_reorient_transform": [
    [0.0, -1.0, 0.0, 69.0],
    [1.0, 0.0, 0.0, 0.0],
    [0.0, 0.0, 1.0, 0.0],
    [0.0, 0.0, 0.0, 1.0]
],
  "dcmmeta_shape": [70, 70, 34, 237],
  "dcmmeta_slice_dim": 2,
  "dcmmeta_version": 0.6,
  "global": {
    "const": {
      "AccessionNumber": "M.BRZ",
      "AcquisitionMatrix": [70, 0, 0, 70],
      "AngioFlag": "N",
      "BitsAllocated": 16,
      "BitsStored": 12,
      "BodyPartExamined": "HEAD",
      "Columns": 420,
      "EchoNumbers": 1,
      "EchoTime": 30.0,
      "EchoTrainLength": 53,
      "FlipAngle": 90.0,
      "HighBit": 11,
      "ImageOrientationPatient": [0.99903018505438, 0.02044859874886, 0.0389941554522, -0.0017435958783, 0.90329423477204, -0.4290180477568],
      "ImagePositionPatient": [-743.44512552016, -699.74921436458, 252.76744638025],
      "ImageType": [
        "ORIGINAL",
        "PRIMARY",
        "M",
        "ND",
        "NORM",
        "MOSAIC"
],
      "ImagedNucleus": "1H",
      "ImagingFrequency": 123.19111,
      "InPlanePhaseEncodingDirection": "COL",
      "MRAcquisitionType": "2D",
      "MagneticFieldStrength": 3.0,
      "Manufacturer": "SIEMENS",
      "ManufacturerModelName": "Prisma",
      "Modality": "MR",
      "NumberOfAverages": 1.0,
      "NumberOfPhaseEncodingSteps": 105,
      "PercentPhaseFieldOfView": 100.0,
      "PercentSampling": 100.0,
      "PerformedProcedureStepStartTime": "085708.053000",
      "PhotometricInterpretation": "MONOCHROME2",
      "PixelBandwidth": 2465.0,
      "PixelRepresentation": 0,
      "PixelSpacing": [3.542857170105, 3.542857170105],
      "ProtocolName": "ep2d_p2_Task_3.5_measurment:237",
      "RepetitionTime": 2000.0,
      "Rows": 420,
      "SAR": 0.09422229662693,
      "SamplesPerPixel": 1,
      "ScanOptions": "FS",
      "ScanningSequence": "EP",
      "SequenceName": "*epfid2d1_70",
      "SequenceVariant": [
        "SK",
        "OSP"
],
      "SeriesDescription": "ep2d_p2_Task_3.5_measurment:237",
      "SeriesNumber": 9,
      "SeriesTime": "100914.851000",
      "SliceLocation": -39.046742777036,
      "SliceThickness": 3.5,
      "SmallestImagePixelValue": 0,
      "SoftwareVersions": "syngo MR E11",
      "SpacingBetweenSlices": 3.8499999329472,
      "SpecificCharacterSet": "ISO_IR 100",
      "StudyID": "1",
      "StudyTime": "085707.911000",
      "TransmitCoilName": "Body",
      "VariableFlipAngleFlag": "N",
      "WindowCenterWidthExplanation": "Algo1",
      "dBdt": 0.0},
    "slices": {}
  },
  "time": {
    "samples": {
      "AcquisitionNumber": [1, 2, 3, 4, 5, 6, 7, 8, 9, 10, 11, 12, 13, 14, 15, 16, 17, 18, 19, 20, 21, 22, 23, 24, 25, 26, 27, 28, 29, 30, 31, 32, 33, 34, 35, 36, 37, 38, 39, 40, 41, 42, 43, 44, 45, 46, 47, 48, 49, 50, 51, 52, 53, 54, 55, 56, 57, 58, 59, 60, 61, 62, 63, 64, 65, 66, 67, 68, 69, 70, 71, 72, 73, 74, 75, 76, 77, 78, 79, 80, 81, 82, 83, 84, 85, 86, 87, 88, 89, 90, 91, 92, 93, 94, 95, 96, 97, 98, 99, 100, 101, 102, 103, 104, 105, 106, 107, 108, 109, 110, 111, 112, 113, 114, 115, 116, 117, 118, 119, 120, 121, 122, 123, 124, 125, 126, 127, 128, 129, 130, 131, 132, 133, 134, 135, 136, 137, 138, 139, 140, 141, 142, 143, 144, 145, 146, 147, 148, 149, 150, 151, 152, 153, 154, 155, 156, 157, 158, 159, 160, 161, 162, 163, 164, 165, 166, 167, 168, 169, 170, 171, 172, 173, 174, 175, 176, 177, 178, 179, 180, 181, 182, 183, 184, 185, 186, 187, 188, 189, 190, 191, 192, 193, 194, 195, 196, 197, 198, 199, 200, 201, 202, 203, 204, 205, 206, 207, 208, 209, 210, 211, 212, 213, 214, 215, 216, 217, 218, 219, 220, 221, 222, 223, 224, 225, 226, 227, 228, 229, 230, 231, 232, 233, 234, 235, 236, 237],
      "AcquisitionTime": ["100820.292500", "100822.292500", "100824.292500", "100826.292500", "100828.292500", "100830.292500", "100832.292500", "100834.292500", "100836.292500", "100838.292500", "100840.292500", "100842.292500", "100844.292500", "100846.292500", "100848.292500", "100850.292500", "100852.292500", "100854.292500", "100856.292500", "100858.292500", "100900.292500", "100902.292500", "100904.292500", "100906.292500", "100908.292500", "100910.292500", "100912.292500", "100914.292500", "100916.292500", "100918.292500", "100920.292500", "100922.292500", "100924.292500", "100926.292500", "100928.292500", "100930.292500", "100932.292500", "100934.292500", "100936.292500", "100938.292500", "100940.292500", "100942.292500", "100944.292500", "100946.292500", "100948.292500", "100950.292500", "100952.292500", "100954.292500", "100956.292500", "100958.292500", "101000.292500", "101002.292500", "101004.292500", "101006.292500", "101008.292500", "101010.292500", "101012.292500", "101014.292500", "101016.292500", "101018.292500", "101020.292500", "101022.292500", "101024.292500", "101026.292500", "101028.292500", "101030.292500", "101032.292500", "101034.292500", "101036.292500", "101038.292500", "101040.292500", "101042.292500", "101044.292500", "101046.292500", "101048.292500", "101050.292500", "101052.292500", "101054.292500", "101056.292500", "101058.292500", "101100.292500", "101102.292500", "101104.292500", "101106.292500", "101108.292500", "101110.292500", "101112.292500", "101114.292500", "101116.292500", "101118.292500", "101120.292500", "101122.292500", "101124.292500", "101126.292500", "101128.292500", "101130.292500", "101132.292500", "101134.292500", "101136.292500", "101138.292500", "101140.292500", "101142.292500", "101144.292500", "101146.292500", "101148.292500", "101150.292500", "101152.292500", "101154.292500", "101156.292500", "101158.292500", "101200.292500", "101202.292500", "101204.292500", "101206.292500", "101208.292500", "101210.292500", "101212.292500", "101214.292500", "101216.292500", "101218.292500", "101220.292500", "101222.292500", "101224.292500", "101226.292500", "101228.292500", "101230.292500", "101232.292500", "101234.292500", "101236.292500", "101238.292500", "101240.292500", "101242.292500", "101244.292500", "101246.292500", "101248.292500", "101250.292500", "101252.292500", "101254.292500", "101256.292500", "101258.292500", "101300.292500", "101302.292500", "101304.292500", "101306.292500", "101308.292500", "101310.292500", "101312.292500", "101314.292500", "101316.292500", "101318.292500", "101320.292500", "101322.292500", "101324.292500", "101326.292500", "101328.292500", "101330.292500", "101332.292500", "101334.292500", "101336.292500", "101338.292500", "101340.292500", "101342.292500", "101344.292500", "101346.292500", "101348.292500", "101350.292500", "101352.292500", "101354.292500", "101356.292500", "101358.292500", "101400.292500", "101402.292500", "101404.292500", "101406.292500", "101408.292500", "101410.292500", "101412.292500", "101414.292500", "101416.292500", "101418.292500", "101420.292500", "101422.292500", "101424.292500", "101426.292500", "101428.292500", "101430.292500", "101432.292500", "101434.292500", "101436.292500", "101438.292500", "101440.292500", "101442.292500", "101444.292500", "101446.292500", "101448.292500", "101450.292500", "101452.292500", "101454.292500", "101456.292500", "101458.292500", "101500.292500", "101502.292500", "101504.292500", "101506.292500", "101508.292500", "101510.292500", "101512.292500", "101514.292500", "101516.292500", "101518.292500", "101520.292500", "101522.292500", "101524.292500", "101526.292500", "101528.292500", "101530.292500", "101532.292500", "101534.292500", "101536.292500", "101538.292500", "101540.292500", "101542.292500", "101544.292500", "101546.292500", "101548.292500", "101550.292500", "101552.292500", "101554.292500", "101556.292500", "101558.292500", "101600.292500", "101602.292500", "101604.292500", "101606.292500", "101608.292500", "101610.292500", "101612.292500"],
      "ContentTime": ["100914.855000", "100914.859000", "100914.862000", "100914.865000", "100914.869000", "100914.872000", "100914.875000", "100914.878000", "100914.882000", "100914.885000", "100914.888000", "100914.891000", "100914.894000", "100914.898000", "100914.901000", "100914.904000", "100914.908000", "100914.911000", "100914.914000", "100914.918000", "100914.927000", "100914.931000", "100914.934000", "100914.937000", "100914.940000", "100914.944000", "100914.950000", "100934.848000", "100934.851000", "100934.854000", "100934.858000", "100934.861000", "100934.864000", "100934.867000", "100934.870000", "100934.873000", "100934.876000", "101014.849000", "101014.853000", "101014.856000", "101014.859000", "101014.862000", "101014.867000", "101014.870000", "101014.873000", "101014.876000", "101014.879000", "101014.882000", "101014.885000", "101014.888000", "101014.892000", "101014.895000", "101014.898000", "101014.901000", "101014.904000", "101014.907000", "101014.911000", "101054.849000", "101054.854000", "101054.857000", "101054.860000", "101054.863000", "101054.867000", "101054.870000", "101054.873000", "101054.876000", "101054.880000", "101054.883000", "101054.886000", "101054.890000", "101054.893000", "101054.896000", "101054.900000", "101054.903000", "101054.906000", "101054.910000", "101054.913000", "101134.849000", "101134.853000", "101134.856000", "101134.859000", "101134.862000", "101134.865000", "101134.869000", "101134.872000", "101134.875000", "101134.878000", "101134.881000", "101134.884000", "101134.887000", "101134.891000", "101134.894000", "101134.897000", "101134.900000", "101134.903000", "101134.915000", "101134.918000", "101214.850000", "101214.853000", "101214.857000", "101214.860000", "101214.863000", "101214.867000", "101214.870000", "101214.873000", "101214.876000", "101214.880000", "101214.883000", "101214.886000", "101214.889000", "101214.892000", "101214.896000", "101214.899000", "101214.902000", "101214.905000", "101214.908000", "101214.911000", "101254.848000", "101254.852000", "101254.855000", "101254.858000", "101254.861000", "101254.865000", "101254.868000", "101254.871000", "101254.874000", "101254.877000", "101254.881000", "101254.884000", "101254.887000", "101254.892000", "101254.896000", "101254.899000", "101254.902000", "101254.905000", "101254.908000", "101254.912000", "101334.848000", "101334.852000", "101334.855000", "101334.858000", "101334.861000", "101334.865000", "101334.868000", "101334.871000", "101334.874000", "101334.877000", "101334.880000", "101334.884000", "101334.887000", "101334.890000", "101334.893000", "101334.896000", "101334.899000", "101334.902000", "101334.905000", "101334.908000", "101414.848000", "101414.852000", "101414.855000", "101414.858000", "101414.861000", "101414.864000", "101414.868000", "101414.871000", "101414.874000", "101414.877000", "101414.880000", "101414.883000", "101414.886000", "101414.889000", "101414.892000", "101414.896000", "101414.899000", "101414.902000", "101414.905000", "101414.908000", "101454.849000", "101454.852000", "101454.855000", "101454.859000", "101454.862000", "101454.881000", "101454.884000", "101454.887000", "101454.890000", "101454.894000", "101454.897000", "101454.906000", "101454.909000", "101454.912000", "101454.915000", "101454.918000", "101454.921000", "101454.924000", "101454.927000", "101454.931000", "101534.849000", "101534.852000", "101534.856000", "101534.859000", "101534.862000", "101534.865000", "101534.868000", "101534.871000", "101534.874000", "101534.878000", "101534.881000", "101534.884000", "101534.887000", "101534.890000", "101534.893000", "101534.896000", "101534.899000", "101534.903000", "101534.906000", "101534.909000", "101613.637000", "101613.640000", "101613.642000", "101613.645000", "101613.648000", "101613.650000", "101613.653000", "101613.655000", "101613.658000", "101613.660000", "101613.663000", "101613.666000", "101613.676000", "101613.680000", "101613.683000", "101613.685000", "101613.688000", "101613.694000", "101613.697000", "101613.700000"],
      "InstanceCreationTime": ["100914.855000", "100914.859000", "100914.862000", "100914.865000", "100914.869000", "100914.872000", "100914.875000", "100914.878000", "100914.882000", "100914.885000", "100914.888000", "100914.891000", "100914.894000", "100914.898000", "100914.901000", "100914.904000", "100914.908000", "100914.911000", "100914.914000", "100914.918000", "100914.927000", "100914.931000", "100914.934000", "100914.937000", "100914.940000", "100914.944000", "100914.950000", "100934.848000", "100934.851000", "100934.854000", "100934.858000", "100934.861000", "100934.864000", "100934.867000", "100934.870000", "100934.873000", "100934.876000", "101014.849000", "101014.853000", "101014.856000", "101014.859000", "101014.862000", "101014.867000", "101014.870000", "101014.873000", "101014.876000", "101014.879000", "101014.882000", "101014.885000", "101014.888000", "101014.892000", "101014.895000", "101014.898000", "101014.901000", "101014.904000", "101014.907000", "101014.911000", "101054.849000", "101054.854000", "101054.857000", "101054.860000", "101054.863000", "101054.867000", "101054.870000", "101054.873000", "101054.876000", "101054.880000", "101054.883000", "101054.886000", "101054.890000", "101054.893000", "101054.896000", "101054.900000", "101054.903000", "101054.906000", "101054.910000", "101054.913000", "101134.849000", "101134.853000", "101134.856000", "101134.859000", "101134.862000", "101134.865000", "101134.869000", "101134.872000", "101134.875000", "101134.878000", "101134.881000", "101134.884000", "101134.887000", "101134.891000", "101134.894000", "101134.897000", "101134.900000", "101134.903000", "101134.915000", "101134.918000", "101214.850000", "101214.853000", "101214.857000", "101214.860000", "101214.863000", "101214.867000", "101214.870000", "101214.873000", "101214.876000", "101214.880000", "101214.883000", "101214.886000", "101214.889000", "101214.892000", "101214.896000", "101214.899000", "101214.902000", "101214.905000", "101214.908000", "101214.911000", "101254.848000", "101254.852000", "101254.855000", "101254.858000", "101254.861000", "101254.865000", "101254.868000", "101254.871000", "101254.874000", "101254.877000", "101254.881000", "101254.884000", "101254.887000", "101254.892000", "101254.896000", "101254.899000", "101254.902000", "101254.905000", "101254.908000", "101254.912000", "101334.848000", "101334.852000", "101334.855000", "101334.858000", "101334.861000", "101334.865000", "101334.868000", "101334.871000", "101334.874000", "101334.877000", "101334.880000", "101334.884000", "101334.887000", "101334.890000", "101334.893000", "101334.896000", "101334.899000", "101334.902000", "101334.905000", "101334.908000", "101414.848000", "101414.852000", "101414.855000", "101414.858000", "101414.861000", "101414.864000", "101414.868000", "101414.871000", "101414.874000", "101414.877000", "101414.880000", "101414.883000", "101414.886000", "101414.889000", "101414.892000", "101414.896000", "101414.899000", "101414.902000", "101414.905000", "101414.908000", "101454.849000", "101454.852000", "101454.855000", "101454.859000", "101454.862000", "101454.881000", "101454.884000", "101454.887000", "101454.890000", "101454.894000", "101454.897000", "101454.906000", "101454.909000", "101454.912000", "101454.915000", "101454.918000", "101454.921000", "101454.924000", "101454.927000", "101454.931000", "101534.849000", "101534.852000", "101534.856000", "101534.859000", "101534.862000", "101534.865000", "101534.868000", "101534.871000", "101534.874000", "101534.878000", "101534.881000", "101534.884000", "101534.887000", "101534.890000", "101534.893000", "101534.896000", "101534.899000", "101534.903000", "101534.906000", "101534.909000", "101613.637000", "101613.640000", "101613.642000", "101613.645000", "101613.648000", "101613.650000", "101613.653000", "101613.655000", "101613.658000", "101613.660000", "101613.663000", "101613.666000", "101613.676000", "101613.680000", "101613.683000", "101613.685000", "101613.688000", "101613.694000", "101613.697000", "101613.700000"],
      "InstanceNumber": [1, 2, 3, 4, 5, 6, 7, 8, 9, 10, 11, 12, 13, 14, 15, 16, 17, 18, 19, 20, 21, 22, 23, 24, 25, 26, 27, 28, 29, 30, 31, 32, 33, 34, 35, 36, 37, 38, 39, 40, 41, 42, 43, 44, 45, 46, 47, 48, 49, 50, 51, 52, 53, 54, 55, 56, 57, 58, 59, 60, 61, 62, 63, 64, 65, 66, 67, 68, 69, 70, 71, 72, 73, 74, 75, 76, 77, 78, 79, 80, 81, 82, 83, 84, 85, 86, 87, 88, 89, 90, 91, 92, 93, 94, 95, 96, 97, 98, 99, 100, 101, 102, 103, 104, 105, 106, 107, 108, 109, 110, 111, 112, 113, 114, 115, 116, 117, 118, 119, 120, 121, 122, 123, 124, 125, 126, 127, 128, 129, 130, 131, 132, 133, 134, 135, 136, 137, 138, 139, 140, 141, 142, 143, 144, 145, 146, 147, 148, 149, 150, 151, 152, 153, 154, 155, 156, 157, 158, 159, 160, 161, 162, 163, 164, 165, 166, 167, 168, 169, 170, 171, 172, 173, 174, 175, 176, 177, 178, 179, 180, 181, 182, 183, 184, 185, 186, 187, 188, 189, 190, 191, 192, 193, 194, 195, 196, 197, 198, 199, 200, 201, 202, 203, 204, 205, 206, 207, 208, 209, 210, 211, 212, 213, 214, 215, 216, 217, 218, 219, 220, 221, 222, 223, 224, 225, 226, 227, 228, 229, 230, 231, 232, 233, 234, 235, 236, 237],
      "LargestImagePixelValue": [2699, 2842, 2602, 2698, 2622, 2702, 2818, 2295, 2111, 2771, 2592, 2688, 2759, 2747, 2565, 2546, 1880, 2570, 2619, 2750, 2879, 2468, 2142, 2722, 2640, 2560, 2814, 2523, 2157, 1804, 1917, 2463, 2904, 2606, 2453, 2614, 2884, 2814, 2969, 2029, 1842, 2595, 2760, 2789, 2209, 2074, 2053, 2402, 2663, 2683, 2805, 2140, 1887, 2774, 2958, 3003, 2094, 2279, 2389, 2264, 2810, 2527, 2066, 2515, 2453, 2439, 2702, 2448, 2631, 2370, 1840, 2308, 2696, 2831, 2941, 2981, 2528, 2725, 2492, 1853, 1973, 2556, 2685, 2684, 2361, 2455, 2664, 3080, 1875, 2451, 2740, 3101, 2739, 2418, 2507, 2449, 1788, 2116, 2299, 2659, 2902, 2696, 2798, 3113, 3067, 2017, 1870, 2452, 1899, 2537, 2784, 2901, 2677, 3007, 3016, 2969, 2768, 2673, 2013, 2071, 1925, 2418, 2509, 3043, 3062, 2920, 1957, 2105, 2225, 2367, 2407, 2229, 2275, 2183, 2245, 2620, 2458, 2191, 2765, 2977, 2684, 1992, 2650, 3003, 2093, 2380, 2361, 2415, 2530, 2352, 3063, 2866, 3026, 2501, 1839, 2012, 2760, 2928, 3100, 2792, 2125, 1971, 2095, 2537, 2411, 2330, 2258, 2192, 1927, 2040, 2353, 2582, 2368, 3122, 3073, 2663, 2039, 2901, 2867, 2855, 2397, 2321, 2036, 2276, 2775, 2367, 2487, 2165, 2307, 2422, 2242, 1901, 1900, 2532, 2816, 3090, 2968, 3181, 3546, 3113, 2268, 1846, 2009, 2170, 2051, 2053, 1940, 2089, 2314, 2822, 2117, 2623, 3042, 3439, 3507, 2791, 1835, 2111, 2551, 2582, 2169, 2211, 2114, 2681, 2275, 2012, 1998, 2204, 2955, 2883, 2662, 2172, 2208, 1990, 2941, 3006, 3402],
      "WindowCenter": [737.0, 736.0, 735.0, 735.0, 735.0, 735.0, 736.0, 734.0, 734.0, 735.0, 734.0, 735.0, 735.0, 735.0, 734.0, 735.0, 734.0, 736.0, 736.0, 736.0, 736.0, 735.0, 735.0, 735.0, 734.0, 733.0, 734.0, 733.0, 733.0, 733.0, 734.0, 736.0, 736.0, 736.0, 735.0, 735.0, 735.0, 734.0, 734.0, 732.0, 733.0, 735.0, 735.0, 735.0, 734.0, 733.0, 734.0, 736.0, 736.0, 736.0, 736.0, 735.0, 735.0, 736.0, 736.0, 735.0, 733.0, 733.0, 733.0, 734.0, 736.0, 736.0, 735.0, 735.0, 735.0, 735.0, 736.0, 736.0, 736.0, 735.0, 735.0, 736.0, 737.0, 736.0, 735.0, 735.0, 734.0, 734.0, 734.0, 733.0, 734.0, 735.0, 735.0, 735.0, 734.0, 735.0, 735.0, 736.0, 734.0, 735.0, 736.0, 735.0, 734.0, 733.0, 733.0, 733.0, 733.0, 735.0, 735.0, 736.0, 737.0, 737.0, 736.0, 736.0, 734.0, 733.0, 734.0, 735.0, 734.0, 736.0, 736.0, 736.0, 736.0, 736.0, 736.0, 735.0, 734.0, 734.0, 733.0, 734.0, 733.0, 735.0, 736.0, 737.0, 735.0, 734.0, 732.0, 732.0, 733.0, 733.0, 733.0, 733.0, 734.0, 735.0, 735.0, 736.0, 736.0, 736.0, 736.0, 736.0, 736.0, 735.0, 736.0, 736.0, 735.0, 736.0, 735.0, 735.0, 735.0, 736.0, 736.0, 736.0, 736.0, 734.0, 734.0, 735.0, 737.0, 736.0, 735.0, 734.0, 733.0, 732.0, 733.0, 733.0, 733.0, 734.0, 735.0, 735.0, 734.0, 736.0, 736.0, 736.0, 737.0, 737.0, 737.0, 735.0, 734.0, 736.0, 736.0, 735.0, 733.0, 733.0, 733.0, 735.0, 735.0, 734.0, 734.0, 734.0, 735.0, 735.0, 734.0, 734.0, 736.0, 737.0, 737.0, 736.0, 736.0, 735.0, 735.0, 734.0, 732.0, 731.0, 732.0, 732.0, 732.0, 733.0, 734.0, 735.0, 735.0, 737.0, 737.0, 737.0, 737.0, 737.0, 735.0, 734.0, 732.0, 733.0, 734.0, 733.0, 733.0, 733.0, 734.0, 736.0, 735.0, 735.0, 736.0, 737.0, 737.0, 736.0, 734.0, 734.0, 734.0, 735.0, 737.0, 737.0, 736.0],
      "WindowWidth": [1646.0, 1642.0, 1639.0, 1639.0, 1638.0, 1641.0, 1642.0, 1634.0, 1633.0, 1639.0, 1637.0, 1638.0, 1639.0, 1640.0, 1637.0, 1640.0, 1634.0, 1643.0, 1643.0, 1643.0, 1644.0, 1640.0, 1638.0, 1639.0, 1636.0, 1634.0, 1634.0, 1632.0, 1633.0, 1630.0, 1634.0, 1641.0, 1645.0, 1643.0, 1639.0, 1640.0, 1640.0, 1638.0, 1637.0, 1629.0, 1630.0, 1638.0, 1640.0, 1640.0, 1634.0, 1633.0, 1635.0, 1641.0, 1644.0, 1643.0, 1643.0, 1639.0, 1637.0, 1643.0, 1644.0, 1641.0, 1631.0, 1632.0, 1632.0, 1634.0, 1642.0, 1640.0, 1635.0, 1637.0, 1637.0, 1639.0, 1641.0, 1640.0, 1640.0, 1639.0, 1636.0, 1643.0, 1645.0, 1641.0, 1640.0, 1638.0, 1634.0, 1635.0, 1634.0, 1630.0, 1635.0, 1639.0, 1638.0, 1638.0, 1634.0, 1637.0, 1640.0, 1642.0, 1634.0, 1639.0, 1641.0, 1640.0, 1636.0, 1631.0, 1632.0, 1632.0, 1629.0, 1637.0, 1638.0, 1641.0, 1645.0, 1644.0, 1644.0, 1642.0, 1637.0, 1631.0, 1633.0, 1638.0, 1635.0, 1643.0, 1644.0, 1642.0, 1640.0, 1642.0, 1642.0, 1639.0, 1635.0, 1633.0, 1629.0, 1634.0, 1632.0, 1640.0, 1642.0, 1645.0, 1640.0, 1637.0, 1627.0, 1628.0, 1630.0, 1632.0, 1632.0, 1633.0, 1635.0, 1637.0, 1637.0, 1642.0, 1641.0, 1641.0, 1644.0, 1644.0, 1641.0, 1638.0, 1643.0, 1642.0, 1636.0, 1640.0, 1638.0, 1637.0, 1640.0, 1641.0, 1643.0, 1641.0, 1641.0, 1636.0, 1633.0, 1638.0, 1644.0, 1641.0, 1640.0, 1635.0, 1629.0, 1627.0, 1630.0, 1633.0, 1631.0, 1635.0, 1636.0, 1636.0, 1635.0, 1639.0, 1642.0, 1642.0, 1644.0, 1647.0, 1645.0, 1637.0, 1634.0, 1641.0, 1641.0, 1637.0, 1632.0, 1630.0, 1631.0, 1637.0, 1639.0, 1634.0, 1635.0, 1634.0, 1637.0, 1638.0, 1635.0, 1633.0, 1639.0, 1646.0, 1645.0, 1645.0, 1641.0, 1641.0, 1640.0, 1636.0, 1627.0, 1623.0, 1626.0, 1627.0, 1627.0, 1631.0, 1633.0, 1637.0, 1640.0, 1646.0, 1644.0, 1646.0, 1647.0, 1646.0, 1641.0, 1634.0, 1627.0, 1631.0, 1635.0, 1632.0, 1629.0, 1632.0, 1635.0, 1641.0, 1637.0, 1636.0, 1639.0, 1644.0, 1645.0, 1642.0, 1635.0, 1633.0, 1634.0, 1639.0, 1647.0, 1645.0, 1643.0]
    },
    "slices": {}
  }
}