{
  "AcquisitionMatrixPE": 70,
  "AcquisitionNumber": 1,
  "AcquisitionTime": "09:23:27.280000",
  "BandwidthPerPixelPhaseEncode": 38.873,
  "BaseResolution": 70,
  "BodyPartExamined": "HEAD",
  "CoilString": "HC1-7;NC1",
  "ConsistencyInfo": "N4_VE11B_LATEST_20150530",
  "ConversionSoftware": "dcm2niix",
  "ConversionSoftwareVersion": "v1.0.20190410  GCC6.3.0",
  "DerivedVendorReportedEchoSpacing": 0.000489996,
  "DeviceSerialNumber": "66088",
  "DwellTime": 2.9e-06,
  "EchoTime": 0.03,
  "EchoTrainLength": 53,
  "EffectiveEchoSpacing": 0.000367497,
  "FlipAngle": 90,
  "ImageOrientationPatientDICOM": [0.99903, 0.0204486, 0.0389942, -0.0017436, 0.903294, -0.429018],
  "ImageType": [
    "ORIGINAL",
    "PRIMARY",
    "M",
    "ND",
    "NORM",
    "MOSAIC"
],
  "ImagingFrequency": 123.191,
  "InPlanePhaseEncodingDirectionDICOM": "COL",
  "InstitutionAddress": "Street_StreetNo_City_District_IR_ZIP",
  "InstitutionName": "NBML",
  "InstitutionalDepartmentName": "Department",
  "MRAcquisitionType": "2D",
  "MagneticFieldStrength": 3,
  "Manufacturer": "Siemens",
  "ManufacturersModelName": "Prisma",
  "Modality": "MR",
  "ParallelReductionFactorInPlane": 2,
  "PartialFourier": 1,
  "PatientPosition": "HFS",
  "PercentPhaseFOV": 100,
  "PhaseEncodingDirection": "j-",
  "PhaseEncodingSteps": 105,
  "PhaseOversampling": 0.5,
  "PhaseResolution": 1,
  "PixelBandwidth": 2465,
  "ProcedureStepDescription": "NBML_Project_P-96169-Ebrahiminiya",
  "ProtocolName": "ep2d_p2_Task_3.5_measurment:237",
  "PulseSequenceDetails": "%SiemensSeq%_ep2d_pace",
  "ReceiveCoilName": "HeadNeck_64",
  "ReconMatrixPE": 70,
  "RepetitionTime": 2,
  "SAR": 0.0942223,
  "ScanOptions": "FS",
  "ScanningSequence": "EP",
  "SequenceName": "_epfid2d1_70",
  "SequenceVariant": "SK_OSP",
  "SeriesDescription": "ep2d_p2_Task_3.5_measurment:237",
  "SeriesNumber": 4,
  "ShimSetting": [2617, -4440, -3194, 457, 23, 103, -160, 62],
  "SliceThickness": 3.5,
  "SliceTiming": [0.99, 0, 1.0475, 0.0575, 1.1075, 0.1175, 1.165, 0.175, 1.2225, 0.2325, 1.2825, 0.2925, 1.34, 0.35, 1.3975, 0.4075, 1.455, 0.465, 1.515, 0.525, 1.5725, 0.5825, 1.63, 0.64, 1.69, 0.7, 1.7475, 0.7575, 1.805, 0.815, 1.8625, 0.875, 1.9225, 0.9325],
  "SoftwareVersions": "syngo_MR_E11",
  "SpacingBetweenSlices": 3.85,
  "StationName": "AWP66088",
  "TaskName": "categorySelectivity",
  "TotalReadoutTime": 0.0253573,
  "TxRefAmp": 274.531,
  "dcmmeta_affine": [
    [-3.539421319961548, -0.006177311297506094, 0.1693846434354782, 125.55367279052734],
    [-0.07244646549224854, 3.200242519378662, -1.6498558521270752, -93.78807830810547],
    [0.13815072178840637, 1.5199496746063232, 3.474447250366211, -93.92389678955078],
    [0.0, 0.0, 0.0, 1.0]
],
  "dcmmeta_reorient_transform": [
    [0.0, -1.0, 0.0, 69.0],
    [1.0, 0.0, 0.0, 0.0],
    [0.0, 0.0, 1.0, 0.0],
    [0.0, 0.0, 0.0, 1.0]
],
  "dcmmeta_shape": [70, 70, 34, 237],
  "dcmmeta_slice_dim": 2,
  "dcmmeta_version": 0.6,
  "global": {
    "const": {
      "AccessionNumber": "M.BRZ",
      "AcquisitionMatrix": [70, 0, 0, 70],
      "AngioFlag": "N",
      "BitsAllocated": 16,
      "BitsStored": 12,
      "BodyPartExamined": "HEAD",
      "Columns": 420,
      "EchoNumbers": 1,
      "EchoTime": 30.0,
      "EchoTrainLength": 53,
      "FlipAngle": 90.0,
      "HighBit": 11,
      "ImageOrientationPatient": [0.99903018505438, 0.02044859874886, 0.0389941554522, -0.0017435958783, 0.90329423477204, -0.4290180477568],
      "ImagePositionPatient": [-743.44512552016, -699.74921436458, 252.76744638025],
      "ImageType": [
        "ORIGINAL",
        "PRIMARY",
        "M",
        "ND",
        "NORM",
        "MOSAIC"
],
      "ImagedNucleus": "1H",
      "ImagingFrequency": 123.191108,
      "InPlanePhaseEncodingDirection": "COL",
      "MRAcquisitionType": "2D",
      "MagneticFieldStrength": 3.0,
      "Manufacturer": "SIEMENS",
      "ManufacturerModelName": "Prisma",
      "Modality": "MR",
      "NumberOfAverages": 1.0,
      "NumberOfPhaseEncodingSteps": 105,
      "PercentPhaseFieldOfView": 100.0,
      "PercentSampling": 100.0,
      "PerformedProcedureStepStartTime": "085708.053000",
      "PhotometricInterpretation": "MONOCHROME2",
      "PixelBandwidth": 2465.0,
      "PixelRepresentation": 0,
      "PixelSpacing": [3.542857170105, 3.542857170105],
      "ProtocolName": "ep2d_p2_Task_3.5_measurment:237",
      "RepetitionTime": 2000.0,
      "Rows": 420,
      "SAR": 0.09422229662693,
      "SamplesPerPixel": 1,
      "ScanOptions": "FS",
      "ScanningSequence": "EP",
      "SequenceName": "*epfid2d1_70",
      "SequenceVariant": [
        "SK",
        "OSP"
],
      "SeriesDescription": "ep2d_p2_Task_3.5_measurment:237",
      "SeriesNumber": 4,
      "SeriesTime": "092417.022000",
      "SliceLocation": -39.046742777036,
      "SliceThickness": 3.5,
      "SmallestImagePixelValue": 0,
      "SoftwareVersions": "syngo MR E11",
      "SpacingBetweenSlices": 3.8499999329472,
      "SpecificCharacterSet": "ISO_IR 100",
      "StudyID": "1",
      "StudyTime": "085707.911000",
      "TransmitCoilName": "Body",
      "VariableFlipAngleFlag": "N",
      "WindowCenterWidthExplanation": "Algo1",
      "dBdt": 0.0},
    "slices": {}
  },
  "time": {
    "samples": {
      "AcquisitionNumber": [1, 2, 3, 4, 5, 6, 7, 8, 9, 10, 11, 12, 13, 14, 15, 16, 17, 18, 19, 20, 21, 22, 23, 24, 25, 26, 27, 28, 29, 30, 31, 32, 33, 34, 35, 36, 37, 38, 39, 40, 41, 42, 43, 44, 45, 46, 47, 48, 49, 50, 51, 52, 53, 54, 55, 56, 57, 58, 59, 60, 61, 62, 63, 64, 65, 66, 67, 68, 69, 70, 71, 72, 73, 74, 75, 76, 77, 78, 79, 80, 81, 82, 83, 84, 85, 86, 87, 88, 89, 90, 91, 92, 93, 94, 95, 96, 97, 98, 99, 100, 101, 102, 103, 104, 105, 106, 107, 108, 109, 110, 111, 112, 113, 114, 115, 116, 117, 118, 119, 120, 121, 122, 123, 124, 125, 126, 127, 128, 129, 130, 131, 132, 133, 134, 135, 136, 137, 138, 139, 140, 141, 142, 143, 144, 145, 146, 147, 148, 149, 150, 151, 152, 153, 154, 155, 156, 157, 158, 159, 160, 161, 162, 163, 164, 165, 166, 167, 168, 169, 170, 171, 172, 173, 174, 175, 176, 177, 178, 179, 180, 181, 182, 183, 184, 185, 186, 187, 188, 189, 190, 191, 192, 193, 194, 195, 196, 197, 198, 199, 200, 201, 202, 203, 204, 205, 206, 207, 208, 209, 210, 211, 212, 213, 214, 215, 216, 217, 218, 219, 220, 221, 222, 223, 224, 225, 226, 227, 228, 229, 230, 231, 232, 233, 234, 235, 236, 237],
      "AcquisitionTime": ["092327.280000", "092329.280000", "092331.280000", "092333.280000", "092335.280000", "092337.280000", "092339.280000", "092341.280000", "092343.280000", "092345.280000", "092347.280000", "092349.280000", "092351.280000", "092353.280000", "092355.280000", "092357.280000", "092359.280000", "092401.280000", "092403.280000", "092405.280000", "092407.280000", "092409.280000", "092411.280000", "092413.280000", "092415.280000", "092417.280000", "092419.280000", "092421.280000", "092423.280000", "092425.280000", "092427.280000", "092429.280000", "092431.280000", "092433.280000", "092435.280000", "092437.280000", "092439.280000", "092441.280000", "092443.280000", "092445.280000", "092447.280000", "092449.280000", "092451.280000", "092453.280000", "092455.280000", "092457.280000", "092459.280000", "092501.280000", "092503.280000", "092505.280000", "092507.280000", "092509.280000", "092511.280000", "092513.280000", "092515.280000", "092517.280000", "092519.280000", "092521.280000", "092523.280000", "092525.280000", "092527.280000", "092529.280000", "092531.280000", "092533.280000", "092535.280000", "092537.280000", "092539.280000", "092541.280000", "092543.280000", "092545.280000", "092547.280000", "092549.280000", "092551.280000", "092553.280000", "092555.280000", "092557.280000", "092559.280000", "092601.280000", "092603.280000", "092605.280000", "092607.280000", "092609.280000", "092611.280000", "092613.280000", "092615.280000", "092617.280000", "092619.280000", "092621.280000", "092623.280000", "092625.280000", "092627.280000", "092629.280000", "092631.280000", "092633.280000", "092635.280000", "092637.280000", "092639.280000", "092641.280000", "092643.280000", "092645.280000", "092647.280000", "092649.280000", "092651.280000", "092653.280000", "092655.280000", "092657.280000", "092659.280000", "092701.280000", "092703.280000", "092705.280000", "092707.280000", "092709.280000", "092711.280000", "092713.280000", "092715.280000", "092717.280000", "092719.280000", "092721.280000", "092723.280000", "092725.280000", "092727.280000", "092729.280000", "092731.280000", "092733.280000", "092735.280000", "092737.280000", "092739.280000", "092741.280000", "092743.280000", "092745.280000", "092747.280000", "092749.280000", "092751.280000", "092753.280000", "092755.280000", "092757.280000", "092759.280000", "092801.280000", "092803.280000", "092805.280000", "092807.280000", "092809.280000", "092811.280000", "092813.280000", "092815.280000", "092817.280000", "092819.280000", "092821.280000", "092823.280000", "092825.280000", "092827.280000", "092829.280000", "092831.280000", "092833.280000", "092835.280000", "092837.280000", "092839.280000", "092841.280000", "092843.280000", "092845.280000", "092847.280000", "092849.280000", "092851.280000", "092853.280000", "092855.280000", "092857.280000", "092859.280000", "092901.280000", "092903.280000", "092905.280000", "092907.280000", "092909.280000", "092911.280000", "092913.280000", "092915.280000", "092917.280000", "092919.280000", "092921.280000", "092923.280000", "092925.280000", "092927.280000", "092929.280000", "092931.280000", "092933.280000", "092935.280000", "092937.280000", "092939.280000", "092941.280000", "092943.280000", "092945.280000", "092947.280000", "092949.280000", "092951.280000", "092953.280000", "092955.280000", "092957.280000", "092959.280000", "093001.280000", "093003.280000", "093005.280000", "093007.280000", "093009.280000", "093011.280000", "093013.280000", "093015.280000", "093017.280000", "093019.280000", "093021.280000", "093023.280000", "093025.280000", "093027.280000", "093029.280000", "093031.280000", "093033.280000", "093035.280000", "093037.280000", "093039.280000", "093041.280000", "093043.280000", "093045.280000", "093047.280000", "093049.280000", "093051.280000", "093053.280000", "093055.280000", "093057.280000", "093059.280000", "093101.280000", "093103.280000", "093105.280000", "093107.280000", "093109.280000", "093111.280000", "093113.280000", "093115.280000", "093117.280000", "093119.280000"],
      "ContentTime": ["092417.027000", "092417.032000", "092417.035000", "092417.044000", "092417.047000", "092417.054000", "092417.057000", "092417.061000", "092417.064000", "092417.067000", "092417.070000", "092417.075000", "092417.078000", "092417.089000", "092417.092000", "092417.095000", "092417.098000", "092417.101000", "092417.107000", "092417.110000", "092417.113000", "092417.116000", "092417.120000", "092417.123000", "092417.127000", "092457.016000", "092457.019000", "092457.021000", "092457.024000", "092457.027000", "092457.029000", "092457.041000", "092457.043000", "092457.046000", "092457.048000", "092457.051000", "092457.053000", "092457.056000", "092457.062000", "092457.065000", "092457.068000", "092457.070000", "092457.073000", "092457.076000", "092457.078000", "092537.016000", "092537.018000", "092537.021000", "092537.023000", "092537.026000", "092537.028000", "092537.033000", "092537.036000", "092537.038000", "092537.041000", "092537.044000", "092537.046000", "092537.049000", "092537.052000", "092537.054000", "092537.057000", "092537.059000", "092537.062000", "092537.065000", "092537.067000", "092617.016000", "092617.019000", "092617.022000", "092617.026000", "092617.029000", "092617.032000", "092617.035000", "092617.038000", "092617.042000", "092617.049000", "092617.052000", "092617.055000", "092617.059000", "092617.062000", "092617.065000", "092617.068000", "092617.071000", "092617.075000", "092617.078000", "092617.081000", "092657.015000", "092657.018000", "092657.020000", "092657.023000", "092657.025000", "092657.028000", "092657.030000", "092657.032000", "092657.035000", "092657.037000", "092657.040000", "092657.042000", "092657.044000", "092657.047000", "092657.049000", "092657.052000", "092657.059000", "092657.062000", "092657.064000", "092657.066000", "092737.016000", "092737.019000", "092737.022000", "092737.024000", "092737.027000", "092737.029000", "092737.032000", "092737.034000", "092737.037000", "092737.040000", "092737.042000", "092737.045000", "092737.047000", "092737.050000", "092737.053000", "092737.055000", "092737.058000", "092737.060000", "092737.063000", "092737.065000", "092817.016000", "092817.019000", "092817.023000", "092817.026000", "092817.029000", "092817.032000", "092817.035000", "092817.038000", "092817.041000", "092817.044000", "092817.048000", "092817.051000", "092817.054000", "092817.057000", "092817.060000", "092817.063000", "092817.066000", "092817.069000", "092817.072000", "092817.075000", "092857.016000", "092857.019000", "092857.022000", "092857.024000", "092857.027000", "092857.029000", "092857.032000", "092857.035000", "092857.037000", "092857.040000", "092857.042000", "092857.045000", "092857.047000", "092857.050000", "092857.053000", "092857.055000", "092857.058000", "092857.060000", "092857.063000", "092857.065000", "092917.016000", "092917.019000", "092917.023000", "092917.026000", "092917.029000", "092917.032000", "092917.035000", "092917.038000", "092917.041000", "092917.044000", "092957.016000", "092957.019000", "092957.021000", "092957.024000", "092957.026000", "092957.029000", "092957.031000", "092957.034000", "092957.036000", "092957.039000", "092957.041000", "092957.043000", "092957.046000", "092957.048000", "092957.051000", "092957.053000", "092957.055000", "092957.058000", "092957.060000", "092957.063000", "093037.015000", "093037.018000", "093037.021000", "093037.023000", "093037.025000", "093037.028000", "093037.030000", "093037.033000", "093037.035000", "093037.037000", "093037.040000", "093037.042000", "093037.045000", "093037.047000", "093037.050000", "093037.052000", "093037.054000", "093037.057000", "093037.059000", "093037.062000", "093117.016000", "093117.019000", "093117.023000", "093117.026000", "093117.029000", "093117.032000", "093117.035000", "093117.038000", "093117.042000", "093117.045000", "093117.049000", "093117.052000", "093117.055000", "093117.059000", "093117.062000", "093117.065000", "093117.068000", "093117.072000", "093117.080000", "093117.083000", "093120.732000", "093120.736000"],
      "InstanceCreationTime": ["092417.027000", "092417.032000", "092417.035000", "092417.044000", "092417.047000", "092417.054000", "092417.057000", "092417.061000", "092417.064000", "092417.067000", "092417.070000", "092417.075000", "092417.078000", "092417.089000", "092417.092000", "092417.095000", "092417.098000", "092417.101000", "092417.107000", "092417.110000", "092417.113000", "092417.116000", "092417.120000", "092417.123000", "092417.127000", "092457.016000", "092457.019000", "092457.021000", "092457.024000", "092457.027000", "092457.029000", "092457.041000", "092457.043000", "092457.046000", "092457.048000", "092457.051000", "092457.053000", "092457.056000", "092457.062000", "092457.065000", "092457.068000", "092457.070000", "092457.073000", "092457.076000", "092457.078000", "092537.016000", "092537.018000", "092537.021000", "092537.023000", "092537.026000", "092537.028000", "092537.033000", "092537.036000", "092537.038000", "092537.041000", "092537.044000", "092537.046000", "092537.049000", "092537.052000", "092537.054000", "092537.057000", "092537.059000", "092537.062000", "092537.065000", "092537.067000", "092617.016000", "092617.019000", "092617.022000", "092617.026000", "092617.029000", "092617.032000", "092617.035000", "092617.038000", "092617.042000", "092617.049000", "092617.052000", "092617.055000", "092617.059000", "092617.062000", "092617.065000", "092617.068000", "092617.071000", "092617.075000", "092617.078000", "092617.081000", "092657.015000", "092657.018000", "092657.020000", "092657.023000", "092657.025000", "092657.028000", "092657.030000", "092657.032000", "092657.035000", "092657.037000", "092657.040000", "092657.042000", "092657.044000", "092657.047000", "092657.049000", "092657.052000", "092657.059000", "092657.062000", "092657.064000", "092657.066000", "092737.016000", "092737.019000", "092737.022000", "092737.024000", "092737.027000", "092737.029000", "092737.032000", "092737.034000", "092737.037000", "092737.040000", "092737.042000", "092737.045000", "092737.047000", "092737.050000", "092737.053000", "092737.055000", "092737.058000", "092737.060000", "092737.063000", "092737.065000", "092817.016000", "092817.019000", "092817.023000", "092817.026000", "092817.029000", "092817.032000", "092817.035000", "092817.038000", "092817.041000", "092817.044000", "092817.048000", "092817.051000", "092817.054000", "092817.057000", "092817.060000", "092817.063000", "092817.066000", "092817.069000", "092817.072000", "092817.075000", "092857.016000", "092857.019000", "092857.022000", "092857.024000", "092857.027000", "092857.029000", "092857.032000", "092857.035000", "092857.037000", "092857.040000", "092857.042000", "092857.045000", "092857.047000", "092857.050000", "092857.053000", "092857.055000", "092857.058000", "092857.060000", "092857.063000", "092857.065000", "092917.016000", "092917.019000", "092917.023000", "092917.026000", "092917.029000", "092917.032000", "092917.035000", "092917.038000", "092917.041000", "092917.044000", "092957.016000", "092957.019000", "092957.021000", "092957.024000", "092957.026000", "092957.029000", "092957.031000", "092957.034000", "092957.036000", "092957.039000", "092957.041000", "092957.043000", "092957.046000", "092957.048000", "092957.051000", "092957.053000", "092957.055000", "092957.058000", "092957.060000", "092957.063000", "093037.015000", "093037.018000", "093037.021000", "093037.023000", "093037.025000", "093037.028000", "093037.030000", "093037.033000", "093037.035000", "093037.037000", "093037.040000", "093037.042000", "093037.045000", "093037.047000", "093037.050000", "093037.052000", "093037.054000", "093037.057000", "093037.059000", "093037.062000", "093117.016000", "093117.019000", "093117.023000", "093117.026000", "093117.029000", "093117.032000", "093117.035000", "093117.038000", "093117.042000", "093117.045000", "093117.049000", "093117.052000", "093117.055000", "093117.059000", "093117.062000", "093117.065000", "093117.068000", "093117.072000", "093117.080000", "093117.083000", "093120.732000", "093120.736000"],
      "InstanceNumber": [1, 2, 3, 4, 5, 6, 7, 8, 9, 10, 11, 12, 13, 14, 15, 16, 17, 18, 19, 20, 21, 22, 23, 24, 25, 26, 27, 28, 29, 30, 31, 32, 33, 34, 35, 36, 37, 38, 39, 40, 41, 42, 43, 44, 45, 46, 47, 48, 49, 50, 51, 52, 53, 54, 55, 56, 57, 58, 59, 60, 61, 62, 63, 64, 65, 66, 67, 68, 69, 70, 71, 72, 73, 74, 75, 76, 77, 78, 79, 80, 81, 82, 83, 84, 85, 86, 87, 88, 89, 90, 91, 92, 93, 94, 95, 96, 97, 98, 99, 100, 101, 102, 103, 104, 105, 106, 107, 108, 109, 110, 111, 112, 113, 114, 115, 116, 117, 118, 119, 120, 121, 122, 123, 124, 125, 126, 127, 128, 129, 130, 131, 132, 133, 134, 135, 136, 137, 138, 139, 140, 141, 142, 143, 144, 145, 146, 147, 148, 149, 150, 151, 152, 153, 154, 155, 156, 157, 158, 159, 160, 161, 162, 163, 164, 165, 166, 167, 168, 169, 170, 171, 172, 173, 174, 175, 176, 177, 178, 179, 180, 181, 182, 183, 184, 185, 186, 187, 188, 189, 190, 191, 192, 193, 194, 195, 196, 197, 198, 199, 200, 201, 202, 203, 204, 205, 206, 207, 208, 209, 210, 211, 212, 213, 214, 215, 216, 217, 218, 219, 220, 221, 222, 223, 224, 225, 226, 227, 228, 229, 230, 231, 232, 233, 234, 235, 236, 237],
      "LargestImagePixelValue": [1961, 2318, 2243, 2940, 2104, 2229, 2125, 2399, 1970, 1874, 2057, 2202, 2448, 2056, 1913, 2047, 2412, 2368, 2330, 1945, 2003, 2200, 2166, 2242, 1892, 1955, 2182, 2492, 3926, 1989, 1959, 1979, 2375, 3437, 2035, 2198, 1952, 1937, 2259, 1851, 2030, 2315, 1903, 2100, 2161, 2397, 2305, 2142, 2856, 2222, 1944, 2319, 1894, 1927, 2333, 2122, 1972, 2391, 1904, 1900, 2418, 1885, 1903, 2228, 2470, 1889, 1922, 2379, 1902, 2041, 2211, 2275, 1994, 2030, 2065, 1818, 1981, 2972, 3459, 3709, 2089, 2152, 2181, 2030, 2246, 1894, 1992, 2463, 1897, 2128, 2311, 2284, 3889, 2137, 2009, 2278, 2280, 1837, 2036, 2507, 1883, 2015, 2151, 2209, 1872, 2019, 2234, 2392, 1920, 2156, 2342, 3347, 2942, 2969, 1986, 2081, 2393, 1915, 2048, 2321, 2461, 1890, 2049, 2533, 1918, 1953, 2427, 1913, 1904, 2481, 2237, 1886, 2176, 2485, 1877, 1913, 2017, 2385, 1879, 2090, 2584, 3294, 2090, 1970, 2504, 1958, 1931, 2255, 2892, 1961, 1976, 2688, 1889, 1981, 2238, 2416, 1956, 1885, 1934, 2137, 2409, 1878, 2091, 2352, 2388, 2491, 1953, 1952, 2499, 2395, 2664, 1933, 1915, 1969, 2112, 1950, 1865, 2079, 3005, 3842, 4002, 3710, 3354, 2257, 2497, 1912, 1881, 1883, 2289, 1907, 2189, 2317, 2636, 2039, 2396, 2802, 1876, 2236, 3109, 1921, 1986, 2553, 2196, 1970, 2421, 1953, 1968, 2277, 2360, 1876, 2153, 2473, 2568, 2315, 2956, 3579, 3601, 3469, 1900, 2090, 2339, 2753, 1896, 2120, 2555, 1909, 2011, 2323, 1919, 2089, 2666, 1924, 1955, 2419, 2970, 1949, 1918],
      "WindowCenter": [736.0, 735.0, 734.0, 734.0, 732.0, 733.0, 733.0, 733.0, 732.0, 733.0, 733.0, 733.0, 734.0, 733.0, 733.0, 734.0, 735.0, 734.0, 733.0, 733.0, 733.0, 733.0, 733.0, 734.0, 733.0, 734.0, 735.0, 735.0, 736.0, 733.0, 733.0, 734.0, 735.0, 736.0, 733.0, 733.0, 732.0, 733.0, 734.0, 733.0, 734.0, 734.0, 734.0, 734.0, 734.0, 735.0, 735.0, 734.0, 735.0, 734.0, 733.0, 734.0, 733.0, 734.0, 735.0, 734.0, 733.0, 734.0, 733.0, 733.0, 734.0, 733.0, 733.0, 734.0, 734.0, 733.0, 734.0, 735.0, 734.0, 734.0, 734.0, 734.0, 734.0, 734.0, 734.0, 735.0, 737.0, 738.0, 737.0, 736.0, 733.0, 733.0, 732.0, 731.0, 733.0, 733.0, 735.0, 736.0, 735.0, 735.0, 734.0, 734.0, 735.0, 732.0, 731.0, 732.0, 732.0, 733.0, 733.0, 734.0, 733.0, 734.0, 734.0, 735.0, 734.0, 735.0, 735.0, 735.0, 735.0, 736.0, 736.0, 736.0, 735.0, 734.0, 733.0, 734.0, 734.0, 733.0, 734.0, 734.0, 734.0, 732.0, 732.0, 733.0, 732.0, 732.0, 733.0, 732.0, 732.0, 733.0, 733.0, 733.0, 734.0, 735.0, 733.0, 733.0, 734.0, 735.0, 735.0, 735.0, 736.0, 736.0, 734.0, 734.0, 735.0, 734.0, 734.0, 735.0, 735.0, 733.0, 733.0, 734.0, 732.0, 732.0, 733.0, 733.0, 732.0, 732.0, 732.0, 734.0, 735.0, 734.0, 735.0, 735.0, 735.0, 735.0, 734.0, 735.0, 735.0, 734.0, 734.0, 733.0, 733.0, 734.0, 734.0, 735.0, 736.0, 737.0, 737.0, 737.0, 735.0, 733.0, 732.0, 730.0, 731.0, 730.0, 730.0, 731.0, 734.0, 734.0, 734.0, 735.0, 736.0, 735.0, 735.0, 735.0, 732.0, 733.0, 734.0, 731.0, 732.0, 733.0, 732.0, 732.0, 734.0, 733.0, 734.0, 734.0, 735.0, 734.0, 736.0, 737.0, 737.0, 737.0, 737.0, 736.0, 735.0, 734.0, 731.0, 731.0, 732.0, 733.0, 732.0, 733.0, 733.0, 733.0, 733.0, 734.0, 734.0, 734.0, 735.0, 734.0, 734.0, 734.0, 735.0, 732.0, 732.0],
      "WindowWidth": [1642.0, 1641.0, 1637.0, 1638.0, 1631.0, 1632.0, 1632.0, 1634.0, 1631.0, 1632.0, 1634.0, 1635.0, 1638.0, 1635.0, 1634.0, 1636.0, 1639.0, 1638.0, 1636.0, 1631.0, 1634.0, 1635.0, 1635.0, 1636.0, 1634.0, 1636.0, 1639.0, 1642.0, 1647.0, 1632.0, 1632.0, 1637.0, 1640.0, 1645.0, 1634.0, 1635.0, 1631.0, 1632.0, 1637.0, 1633.0, 1636.0, 1638.0, 1635.0, 1637.0, 1637.0, 1640.0, 1639.0, 1636.0, 1643.0, 1636.0, 1634.0, 1638.0, 1634.0, 1635.0, 1640.0, 1637.0, 1633.0, 1636.0, 1633.0, 1632.0, 1638.0, 1634.0, 1634.0, 1637.0, 1639.0, 1634.0, 1636.0, 1640.0, 1636.0, 1635.0, 1636.0, 1638.0, 1636.0, 1635.0, 1637.0, 1639.0, 1645.0, 1650.0, 1648.0, 1646.0, 1634.0, 1632.0, 1629.0, 1628.0, 1633.0, 1633.0, 1639.0, 1646.0, 1638.0, 1640.0, 1639.0, 1638.0, 1644.0, 1630.0, 1627.0, 1629.0, 1630.0, 1631.0, 1634.0, 1639.0, 1633.0, 1635.0, 1637.0, 1640.0, 1637.0, 1639.0, 1641.0, 1642.0, 1638.0, 1643.0, 1644.0, 1646.0, 1641.0, 1639.0, 1632.0, 1635.0, 1637.0, 1633.0, 1638.0, 1637.0, 1637.0, 1629.0, 1631.0, 1634.0, 1629.0, 1629.0, 1634.0, 1630.0, 1631.0, 1635.0, 1633.0, 1633.0, 1638.0, 1641.0, 1633.0, 1633.0, 1637.0, 1642.0, 1638.0, 1641.0, 1643.0, 1646.0, 1636.0, 1637.0, 1642.0, 1637.0, 1637.0, 1638.0, 1642.0, 1634.0, 1634.0, 1639.0, 1631.0, 1631.0, 1633.0, 1633.0, 1629.0, 1629.0, 1631.0, 1635.0, 1642.0, 1636.0, 1640.0, 1642.0, 1642.0, 1642.0, 1637.0, 1638.0, 1641.0, 1638.0, 1638.0, 1632.0, 1634.0, 1637.0, 1637.0, 1638.0, 1643.0, 1647.0, 1649.0, 1649.0, 1643.0, 1637.0, 1632.0, 1624.0, 1627.0, 1622.0, 1623.0, 1628.0, 1636.0, 1636.0, 1637.0, 1640.0, 1643.0, 1639.0, 1639.0, 1643.0, 1631.0, 1634.0, 1638.0, 1628.0, 1629.0, 1634.0, 1632.0, 1631.0, 1636.0, 1633.0, 1635.0, 1638.0, 1640.0, 1638.0, 1645.0, 1649.0, 1648.0, 1647.0, 1648.0, 1648.0, 1642.0, 1638.0, 1625.0, 1626.0, 1630.0, 1634.0, 1629.0, 1632.0, 1636.0, 1631.0, 1632.0, 1638.0, 1634.0, 1636.0, 1641.0, 1636.0, 1635.0, 1639.0, 1642.0, 1630.0, 1631.0]
    },
    "slices": {}
  }
}