{
  "AcquisitionMatrixPE": 70,
  "AcquisitionNumber": 1,
  "AcquisitionTime": "10:16:59.905000",
  "BandwidthPerPixelPhaseEncode": 38.873,
  "BaseResolution": 70,
  "BodyPartExamined": "HEAD",
  "ConsistencyInfo": "N4_VE11B_LATEST_20150530",
  "ConversionSoftware": "dcm2niix",
  "ConversionSoftwareVersion": "v1.0.20190410  GCC6.3.0",
  "DerivedVendorReportedEchoSpacing": 0.000489996,
  "DeviceSerialNumber": "66088",
  "DwellTime": 2.9e-06,
  "EchoTime": 0.03,
  "EchoTrainLength": 53,
  "EffectiveEchoSpacing": 0.000367497,
  "FlipAngle": 90,
  "ImageOrientationPatientDICOM": [0.99903, 0.0204486, 0.0389942, -0.0017436, 0.903294, -0.429018],
  "ImageType": [
    "ORIGINAL",
    "PRIMARY",
    "M",
    "ND",
    "NORM",
    "MOSAIC"
],
  "ImagingFrequency": 123.191,
  "InPlanePhaseEncodingDirectionDICOM": "COL",
  "InstitutionAddress": "Street_StreetNo_City_District_IR_ZIP",
  "InstitutionName": "NBML",
  "InstitutionalDepartmentName": "Department",
  "MRAcquisitionType": "2D",
  "MagneticFieldStrength": 3,
  "Manufacturer": "Siemens",
  "ManufacturersModelName": "Prisma",
  "Modality": "MR",
  "ParallelReductionFactorInPlane": 2,
  "PartialFourier": 1,
  "PatientPosition": "HFS",
  "PercentPhaseFOV": 100,
  "PhaseEncodingDirection": "j-",
  "PhaseEncodingSteps": 105,
  "PhaseOversampling": 0.5,
  "PhaseResolution": 1,
  "PixelBandwidth": 2465,
  "ProcedureStepDescription": "NBML_Project_P-96169-Ebrahiminiya",
  "ProtocolName": "ep2d_p2_Task_3.5_measurment:237",
  "PulseSequenceDetails": "%SiemensSeq%_ep2d_pace",
  "ReceiveCoilActiveElements": "HC1-7;NC1",
  "ReceiveCoilName": "HeadNeck_64",
  "ReconMatrixPE": 70,
  "RefLinesPE": 24,
  "RepetitionTime": 2,
  "SAR": 0.0942223,
  "ScanOptions": "FS",
  "ScanningSequence": "EP",
  "SequenceName": "_epfid2d1_70",
  "SequenceVariant": "SK_OSP",
  "SeriesDescription": "ep2d_p2_Task_3.5_measurment:237",
  "SeriesNumber": 10,
  "ShimSetting": [2617, -4440, -3194, 457, 23, 103, -160, 62],
  "SliceThickness": 3.5,
  "SliceTiming": [0.99, 0, 1.0475, 0.0575, 1.105, 0.115, 1.165, 0.175, 1.2225, 0.2325, 1.28, 0.29, 1.34, 0.35, 1.3975, 0.4075, 1.455, 0.465, 1.5125, 0.5225, 1.5725, 0.5825, 1.63, 0.64, 1.6875, 0.6975, 1.7475, 0.7575, 1.805, 0.815, 1.8625, 0.8725, 1.92, 0.9325],
  "SoftwareVersions": "syngo_MR_E11",
  "SpacingBetweenSlices": 3.85,
  "StationName": "AWP66088",
  "TaskName": "categorySelectivity",
  "TotalReadoutTime": 0.0253573,
  "TxRefAmp": 274.531,
  "dcmmeta_affine": [
    [-3.539421319961548, -0.006177311297506094, 0.1693846434354782, 125.55367279052734],
    [-0.07244646549224854, 3.200242519378662, -1.6498558521270752, -93.78807830810547],
    [0.13815072178840637, 1.5199496746063232, 3.474447250366211, -93.92389678955078],
    [0.0, 0.0, 0.0, 1.0]
],
  "dcmmeta_reorient_transform": [
    [0.0, -1.0, 0.0, 69.0],
    [1.0, 0.0, 0.0, 0.0],
    [0.0, 0.0, 1.0, 0.0],
    [0.0, 0.0, 0.0, 1.0]
],
  "dcmmeta_shape": [70, 70, 34, 237],
  "dcmmeta_slice_dim": 2,
  "dcmmeta_version": 0.6,
  "global": {
    "const": {
      "AccessionNumber": "M.BRZ",
      "AcquisitionMatrix": [70, 0, 0, 70],
      "AngioFlag": "N",
      "BitsAllocated": 16,
      "BitsStored": 12,
      "BodyPartExamined": "HEAD",
      "Columns": 420,
      "EchoNumbers": 1,
      "EchoTime": 30.0,
      "EchoTrainLength": 53,
      "FlipAngle": 90.0,
      "HighBit": 11,
      "ImageOrientationPatient": [0.99903018505438, 0.02044859874886, 0.0389941554522, -0.0017435958783, 0.90329423477204, -0.4290180477568],
      "ImagePositionPatient": [-743.44512552016, -699.74921436458, 252.76744638025],
      "ImageType": [
        "ORIGINAL",
        "PRIMARY",
        "M",
        "ND",
        "NORM",
        "MOSAIC"
],
      "ImagedNucleus": "1H",
      "ImagingFrequency": 123.191116,
      "InPlanePhaseEncodingDirection": "COL",
      "MRAcquisitionType": "2D",
      "MagneticFieldStrength": 3.0,
      "Manufacturer": "SIEMENS",
      "ManufacturerModelName": "Prisma",
      "Modality": "MR",
      "NumberOfAverages": 1.0,
      "NumberOfPhaseEncodingSteps": 105,
      "PercentPhaseFieldOfView": 100.0,
      "PercentSampling": 100.0,
      "PerformedProcedureStepStartTime": "085708.053000",
      "PhotometricInterpretation": "MONOCHROME2",
      "PixelBandwidth": 2465.0,
      "PixelRepresentation": 0,
      "PixelSpacing": [3.542857170105, 3.542857170105],
      "ProtocolName": "ep2d_p2_Task_3.5_measurment:237",
      "RepetitionTime": 2000.0,
      "Rows": 420,
      "SAR": 0.09422229662693,
      "SamplesPerPixel": 1,
      "ScanOptions": "FS",
      "ScanningSequence": "EP",
      "SequenceName": "*epfid2d1_70",
      "SequenceVariant": [
        "SK",
        "OSP"
],
      "SeriesDescription": "ep2d_p2_Task_3.5_measurment:237",
      "SeriesNumber": 10,
      "SeriesTime": "101757.017000",
      "SliceLocation": -39.046742777036,
      "SliceThickness": 3.5,
      "SmallestImagePixelValue": 0,
      "SoftwareVersions": "syngo MR E11",
      "SpacingBetweenSlices": 3.8499999329472,
      "SpecificCharacterSet": "ISO_IR 100",
      "StudyID": "1",
      "StudyTime": "085707.911000",
      "TransmitCoilName": "Body",
      "VariableFlipAngleFlag": "N",
      "WindowCenterWidthExplanation": "Algo1",
      "dBdt": 0.0},
    "slices": {}
  },
  "time": {
    "samples": {
      "AcquisitionNumber": [1, 2, 3, 4, 5, 6, 7, 8, 9, 10, 11, 12, 13, 14, 15, 16, 17, 18, 19, 20, 21, 22, 23, 24, 25, 26, 27, 28, 29, 30, 31, 32, 33, 34, 35, 36, 37, 38, 39, 40, 41, 42, 43, 44, 45, 46, 47, 48, 49, 50, 51, 52, 53, 54, 55, 56, 57, 58, 59, 60, 61, 62, 63, 64, 65, 66, 67, 68, 69, 70, 71, 72, 73, 74, 75, 76, 77, 78, 79, 80, 81, 82, 83, 84, 85, 86, 87, 88, 89, 90, 91, 92, 93, 94, 95, 96, 97, 98, 99, 100, 101, 102, 103, 104, 105, 106, 107, 108, 109, 110, 111, 112, 113, 114, 115, 116, 117, 118, 119, 120, 121, 122, 123, 124, 125, 126, 127, 128, 129, 130, 131, 132, 133, 134, 135, 136, 137, 138, 139, 140, 141, 142, 143, 144, 145, 146, 147, 148, 149, 150, 151, 152, 153, 154, 155, 156, 157, 158, 159, 160, 161, 162, 163, 164, 165, 166, 167, 168, 169, 170, 171, 172, 173, 174, 175, 176, 177, 178, 179, 180, 181, 182, 183, 184, 185, 186, 187, 188, 189, 190, 191, 192, 193, 194, 195, 196, 197, 198, 199, 200, 201, 202, 203, 204, 205, 206, 207, 208, 209, 210, 211, 212, 213, 214, 215, 216, 217, 218, 219, 220, 221, 222, 223, 224, 225, 226, 227, 228, 229, 230, 231, 232, 233, 234, 235, 236, 237],
      "AcquisitionTime": ["101659.905000", "101701.905000", "101703.905000", "101705.905000", "101707.905000", "101709.905000", "101711.905000", "101713.905000", "101715.905000", "101717.905000", "101719.905000", "101721.905000", "101723.905000", "101725.905000", "101727.905000", "101729.905000", "101731.905000", "101733.905000", "101735.905000", "101737.905000", "101739.905000", "101741.905000", "101743.905000", "101745.905000", "101747.905000", "101749.905000", "101751.905000", "101753.905000", "101755.905000", "101757.905000", "101759.905000", "101801.905000", "101803.905000", "101805.905000", "101807.905000", "101809.905000", "101811.905000", "101813.905000", "101815.905000", "101817.905000", "101819.905000", "101821.905000", "101823.905000", "101825.905000", "101827.905000", "101829.905000", "101831.905000", "101833.905000", "101835.905000", "101837.905000", "101839.905000", "101841.905000", "101843.905000", "101845.905000", "101847.905000", "101849.905000", "101851.905000", "101853.905000", "101855.905000", "101857.905000", "101859.905000", "101901.905000", "101903.905000", "101905.905000", "101907.905000", "101909.905000", "101911.905000", "101913.905000", "101915.905000", "101917.905000", "101919.905000", "101921.905000", "101923.905000", "101925.905000", "101927.905000", "101929.905000", "101931.905000", "101933.905000", "101935.905000", "101937.905000", "101939.905000", "101941.905000", "101943.905000", "101945.905000", "101947.905000", "101949.905000", "101951.905000", "101953.905000", "101955.905000", "101957.905000", "101959.905000", "102001.905000", "102003.905000", "102005.905000", "102007.905000", "102009.905000", "102011.905000", "102013.905000", "102015.905000", "102017.905000", "102019.905000", "102021.905000", "102023.905000", "102025.905000", "102027.905000", "102029.905000", "102031.905000", "102033.905000", "102035.905000", "102037.905000", "102039.905000", "102041.905000", "102043.905000", "102045.905000", "102047.905000", "102049.905000", "102051.905000", "102053.905000", "102055.905000", "102057.905000", "102059.905000", "102101.905000", "102103.905000", "102105.905000", "102107.905000", "102109.905000", "102111.905000", "102113.905000", "102115.905000", "102117.905000", "102119.905000", "102121.905000", "102123.905000", "102125.905000", "102127.905000", "102129.905000", "102131.905000", "102133.905000", "102135.905000", "102137.905000", "102139.905000", "102141.905000", "102143.905000", "102145.905000", "102147.905000", "102149.905000", "102151.905000", "102153.905000", "102155.905000", "102157.905000", "102159.905000", "102201.905000", "102203.905000", "102205.905000", "102207.905000", "102209.905000", "102211.905000", "102213.905000", "102215.905000", "102217.905000", "102219.905000", "102221.905000", "102223.905000", "102225.905000", "102227.905000", "102229.905000", "102231.905000", "102233.905000", "102235.905000", "102237.905000", "102239.905000", "102241.905000", "102243.905000", "102245.905000", "102247.905000", "102249.905000", "102251.905000", "102253.905000", "102255.905000", "102257.905000", "102259.905000", "102301.905000", "102303.905000", "102305.905000", "102307.905000", "102309.905000", "102311.905000", "102313.905000", "102315.905000", "102317.905000", "102319.905000", "102321.905000", "102323.905000", "102325.905000", "102327.905000", "102329.905000", "102331.905000", "102333.905000", "102335.905000", "102337.905000", "102339.905000", "102341.905000", "102343.905000", "102345.905000", "102347.905000", "102349.905000", "102351.905000", "102353.905000", "102355.905000", "102357.905000", "102359.905000", "102401.905000", "102403.905000", "102405.905000", "102407.905000", "102409.905000", "102411.905000", "102413.905000", "102415.905000", "102417.905000", "102419.905000", "102421.905000", "102423.905000", "102425.905000", "102427.905000", "102429.905000", "102431.905000", "102433.905000", "102435.905000", "102437.905000", "102439.905000", "102441.905000", "102443.905000", "102445.905000", "102447.905000", "102449.905000", "102451.905000"],
      "ContentTime": ["101757.021000", "101757.024000", "101757.027000", "101757.029000", "101757.032000", "101757.034000", "101757.037000", "101757.039000", "101757.041000", "101757.044000", "101757.048000", "101757.050000", "101757.053000", "101757.063000", "101757.066000", "101757.080000", "101757.082000", "101757.084000", "101757.087000", "101757.090000", "101757.092000", "101757.094000", "101757.097000", "101757.099000", "101757.102000", "101757.105000", "101757.107000", "101757.110000", "101837.017000", "101837.020000", "101837.023000", "101837.026000", "101837.029000", "101837.032000", "101837.035000", "101837.038000", "101837.041000", "101837.045000", "101837.049000", "101837.052000", "101837.056000", "101837.064000", "101837.067000", "101837.071000", "101837.074000", "101837.077000", "101837.080000", "101837.091000", "101917.016000", "101917.020000", "101917.023000", "101917.026000", "101917.029000", "101917.032000", "101917.035000", "101917.038000", "101917.042000", "101917.045000", "101917.049000", "101917.052000", "101917.056000", "101917.059000", "101917.062000", "101917.066000", "101917.070000", "101917.073000", "101917.076000", "101917.079000", "101957.015000", "101957.018000", "101957.020000", "101957.023000", "101957.025000", "101957.028000", "101957.030000", "101957.033000", "101957.035000", "101957.037000", "101957.040000", "101957.043000", "101957.046000", "101957.049000", "101957.052000", "101957.055000", "101957.067000", "101957.070000", "101957.072000", "101957.075000", "102037.016000", "102037.019000", "102037.022000", "102037.025000", "102037.029000", "102037.032000", "102037.035000", "102037.038000", "102037.041000", "102037.045000", "102037.049000", "102037.052000", "102037.056000", "102037.059000", "102037.062000", "102037.066000", "102037.069000", "102037.073000", "102037.076000", "102037.079000", "102117.016000", "102117.019000", "102117.022000", "102117.025000", "102117.028000", "102117.032000", "102117.035000", "102117.046000", "102117.049000", "102117.052000", "102117.055000", "102117.059000", "102117.062000", "102117.066000", "102117.069000", "102117.072000", "102117.076000", "102117.079000", "102117.082000", "102117.085000", "102157.015000", "102157.018000", "102157.020000", "102157.023000", "102157.025000", "102157.027000", "102157.030000", "102157.033000", "102157.036000", "102157.038000", "102157.041000", "102157.045000", "102157.056000", "102157.058000", "102157.060000", "102157.064000", "102157.067000", "102157.070000", "102157.072000", "102157.075000", "102237.017000", "102237.021000", "102237.024000", "102237.027000", "102237.030000", "102237.033000", "102237.037000", "102237.040000", "102237.046000", "102237.050000", "102237.053000", "102237.057000", "102237.060000", "102237.064000", "102237.068000", "102237.071000", "102237.074000", "102237.082000", "102237.086000", "102237.089000", "102317.016000", "102317.019000", "102317.022000", "102317.025000", "102317.028000", "102317.031000", "102317.035000", "102317.038000", "102317.041000", "102317.046000", "102317.049000", "102317.052000", "102317.055000", "102317.059000", "102317.062000", "102317.066000", "102317.069000", "102317.072000", "102317.075000", "102317.078000", "102357.016000", "102357.018000", "102357.021000", "102357.023000", "102357.026000", "102357.028000", "102357.031000", "102357.033000", "102357.036000", "102357.038000", "102357.040000", "102357.044000", "102357.047000", "102357.049000", "102357.052000", "102357.054000", "102357.057000", "102357.059000", "102357.062000", "102357.064000", "102437.016000", "102437.020000", "102437.023000", "102437.026000", "102437.029000", "102437.032000", "102437.036000", "102437.039000", "102437.043000", "102437.046000", "102437.049000", "102437.053000", "102437.056000", "102437.059000", "102437.062000", "102437.066000", "102437.069000", "102437.072000", "102437.075000", "102437.078000", "102453.081000", "102453.084000", "102453.086000", "102453.089000", "102453.091000", "102453.094000", "102453.096000", "102453.099000", "102453.101000"],
      "InstanceCreationTime": ["101757.021000", "101757.024000", "101757.027000", "101757.029000", "101757.032000", "101757.034000", "101757.037000", "101757.039000", "101757.041000", "101757.044000", "101757.048000", "101757.050000", "101757.053000", "101757.063000", "101757.066000", "101757.080000", "101757.082000", "101757.084000", "101757.087000", "101757.090000", "101757.092000", "101757.094000", "101757.097000", "101757.099000", "101757.102000", "101757.105000", "101757.107000", "101757.110000", "101837.017000", "101837.020000", "101837.023000", "101837.026000", "101837.029000", "101837.032000", "101837.035000", "101837.038000", "101837.041000", "101837.045000", "101837.049000", "101837.052000", "101837.056000", "101837.064000", "101837.067000", "101837.071000", "101837.074000", "101837.077000", "101837.080000", "101837.091000", "101917.016000", "101917.020000", "101917.023000", "101917.026000", "101917.029000", "101917.032000", "101917.035000", "101917.038000", "101917.042000", "101917.045000", "101917.049000", "101917.052000", "101917.056000", "101917.059000", "101917.062000", "101917.066000", "101917.070000", "101917.073000", "101917.076000", "101917.079000", "101957.015000", "101957.018000", "101957.020000", "101957.023000", "101957.025000", "101957.028000", "101957.030000", "101957.033000", "101957.035000", "101957.037000", "101957.040000", "101957.043000", "101957.046000", "101957.049000", "101957.052000", "101957.055000", "101957.067000", "101957.070000", "101957.072000", "101957.075000", "102037.016000", "102037.019000", "102037.022000", "102037.025000", "102037.029000", "102037.032000", "102037.035000", "102037.038000", "102037.041000", "102037.045000", "102037.049000", "102037.052000", "102037.056000", "102037.059000", "102037.062000", "102037.066000", "102037.069000", "102037.073000", "102037.076000", "102037.079000", "102117.016000", "102117.019000", "102117.022000", "102117.025000", "102117.028000", "102117.032000", "102117.035000", "102117.046000", "102117.049000", "102117.052000", "102117.055000", "102117.059000", "102117.062000", "102117.066000", "102117.069000", "102117.072000", "102117.076000", "102117.079000", "102117.082000", "102117.085000", "102157.015000", "102157.018000", "102157.020000", "102157.023000", "102157.025000", "102157.027000", "102157.030000", "102157.033000", "102157.036000", "102157.038000", "102157.041000", "102157.045000", "102157.056000", "102157.058000", "102157.060000", "102157.064000", "102157.067000", "102157.070000", "102157.072000", "102157.075000", "102237.017000", "102237.021000", "102237.024000", "102237.027000", "102237.030000", "102237.033000", "102237.037000", "102237.040000", "102237.046000", "102237.050000", "102237.053000", "102237.057000", "102237.060000", "102237.064000", "102237.068000", "102237.071000", "102237.074000", "102237.082000", "102237.086000", "102237.089000", "102317.016000", "102317.019000", "102317.022000", "102317.025000", "102317.028000", "102317.031000", "102317.035000", "102317.038000", "102317.041000", "102317.046000", "102317.049000", "102317.052000", "102317.055000", "102317.059000", "102317.062000", "102317.066000", "102317.069000", "102317.072000", "102317.075000", "102317.078000", "102357.016000", "102357.018000", "102357.021000", "102357.023000", "102357.026000", "102357.028000", "102357.031000", "102357.033000", "102357.036000", "102357.038000", "102357.040000", "102357.044000", "102357.047000", "102357.049000", "102357.052000", "102357.054000", "102357.057000", "102357.059000", "102357.062000", "102357.064000", "102437.016000", "102437.020000", "102437.023000", "102437.026000", "102437.029000", "102437.032000", "102437.036000", "102437.039000", "102437.043000", "102437.046000", "102437.049000", "102437.053000", "102437.056000", "102437.059000", "102437.062000", "102437.066000", "102437.069000", "102437.072000", "102437.075000", "102437.078000", "102453.081000", "102453.084000", "102453.086000", "102453.089000", "102453.091000", "102453.094000", "102453.096000", "102453.099000", "102453.101000"],
      "InstanceNumber": [1, 2, 3, 4, 5, 6, 7, 8, 9, 10, 11, 12, 13, 14, 15, 16, 17, 18, 19, 20, 21, 22, 23, 24, 25, 26, 27, 28, 29, 30, 31, 32, 33, 34, 35, 36, 37, 38, 39, 40, 41, 42, 43, 44, 45, 46, 47, 48, 49, 50, 51, 52, 53, 54, 55, 56, 57, 58, 59, 60, 61, 62, 63, 64, 65, 66, 67, 68, 69, 70, 71, 72, 73, 74, 75, 76, 77, 78, 79, 80, 81, 82, 83, 84, 85, 86, 87, 88, 89, 90, 91, 92, 93, 94, 95, 96, 97, 98, 99, 100, 101, 102, 103, 104, 105, 106, 107, 108, 109, 110, 111, 112, 113, 114, 115, 116, 117, 118, 119, 120, 121, 122, 123, 124, 125, 126, 127, 128, 129, 130, 131, 132, 133, 134, 135, 136, 137, 138, 139, 140, 141, 142, 143, 144, 145, 146, 147, 148, 149, 150, 151, 152, 153, 154, 155, 156, 157, 158, 159, 160, 161, 162, 163, 164, 165, 166, 167, 168, 169, 170, 171, 172, 173, 174, 175, 176, 177, 178, 179, 180, 181, 182, 183, 184, 185, 186, 187, 188, 189, 190, 191, 192, 193, 194, 195, 196, 197, 198, 199, 200, 201, 202, 203, 204, 205, 206, 207, 208, 209, 210, 211, 212, 213, 214, 215, 216, 217, 218, 219, 220, 221, 222, 223, 224, 225, 226, 227, 228, 229, 230, 231, 232, 233, 234, 235, 236, 237],
      "LargestImagePixelValue": [2860, 2827, 2262, 2071, 2683, 2196, 2376, 2271, 2440, 2638, 1949, 2376, 2213, 2805, 2569, 2634, 2237, 2068, 2369, 2762, 2471, 2834, 2356, 1979, 2211, 2302, 2314, 2368, 2272, 2651, 2377, 1956, 2429, 1926, 2433, 2558, 2707, 2365, 2143, 2450, 2817, 2645, 2397, 2231, 2110, 2635, 2239, 2908, 2846, 1998, 2056, 1944, 1890, 1951, 2235, 2415, 2088, 2678, 2611, 2660, 2797, 2353, 2805, 2221, 2202, 2589, 2337, 2269, 1804, 2060, 2275, 2946, 2691, 2448, 2031, 2365, 2665, 2701, 2163, 2386, 2060, 2215, 2260, 1960, 2385, 2127, 2952, 2880, 3439, 2487, 2437, 2312, 1994, 2583, 2529, 3151, 1873, 2134, 2120, 2683, 2620, 2165, 1763, 2266, 1770, 1829, 2185, 2682, 2716, 2942, 2940, 3186, 2806, 1980, 2252, 2259, 2386, 1906, 2992, 2829, 3485, 2589, 1759, 2392, 2306, 3008, 2520, 1778, 2227, 2688, 2116, 1897, 2832, 2637, 1914, 2018, 1881, 2727, 2021, 1937, 2799, 2142, 2484, 2726, 2526, 2161, 1967, 2856, 2352, 3267, 2385, 2098, 2561, 2819, 2950, 2060, 1849, 1790, 2285, 2463, 2558, 2441, 2559, 2423, 2291, 1906, 1812, 2453, 2538, 2483, 1781, 2596, 2867, 2761, 2233, 2738, 2579, 3049, 2720, 2937, 2008, 1816, 2582, 2712, 1931, 1881, 2499, 2619, 2670, 2220, 1783, 1854, 2515, 3038, 3276, 2660, 1954, 2298, 2454, 2425, 3190, 2404, 2207, 1915, 1823, 2139, 2865, 3017, 2189, 1806, 2206, 2431, 2581, 2233, 2103, 2676, 2917, 2001, 2134, 3028, 2262, 2717, 1965, 2542, 2200, 2794, 2581, 3263, 2719, 1779, 1872, 2014, 3146, 2733, 1993, 1764, 2278],
      "WindowCenter": [737.0, 736.0, 734.0, 733.0, 734.0, 733.0, 733.0, 733.0, 734.0, 735.0, 734.0, 734.0, 735.0, 736.0, 736.0, 735.0, 734.0, 733.0, 734.0, 735.0, 734.0, 734.0, 734.0, 733.0, 733.0, 734.0, 734.0, 734.0, 734.0, 735.0, 735.0, 734.0, 735.0, 733.0, 735.0, 735.0, 735.0, 734.0, 734.0, 735.0, 737.0, 736.0, 735.0, 734.0, 733.0, 734.0, 733.0, 734.0, 734.0, 732.0, 732.0, 733.0, 733.0, 735.0, 735.0, 736.0, 736.0, 736.0, 736.0, 735.0, 735.0, 734.0, 735.0, 734.0, 734.0, 733.0, 732.0, 732.0, 732.0, 734.0, 735.0, 736.0, 736.0, 735.0, 734.0, 734.0, 734.0, 733.0, 732.0, 733.0, 733.0, 734.0, 735.0, 736.0, 736.0, 735.0, 736.0, 736.0, 736.0, 733.0, 733.0, 733.0, 733.0, 734.0, 734.0, 734.0, 732.0, 732.0, 732.0, 733.0, 733.0, 732.0, 733.0, 734.0, 733.0, 735.0, 736.0, 737.0, 737.0, 737.0, 736.0, 737.0, 736.0, 734.0, 734.0, 733.0, 733.0, 734.0, 736.0, 735.0, 735.0, 733.0, 732.0, 733.0, 733.0, 733.0, 732.0, 732.0, 733.0, 735.0, 733.0, 733.0, 735.0, 735.0, 732.0, 733.0, 733.0, 736.0, 735.0, 735.0, 735.0, 734.0, 735.0, 736.0, 736.0, 735.0, 734.0, 735.0, 734.0, 735.0, 734.0, 733.0, 734.0, 734.0, 735.0, 733.0, 732.0, 733.0, 735.0, 735.0, 735.0, 736.0, 736.0, 735.0, 735.0, 734.0, 735.0, 735.0, 736.0, 735.0, 735.0, 737.0, 737.0, 735.0, 734.0, 735.0, 735.0, 734.0, 733.0, 733.0, 732.0, 731.0, 733.0, 734.0, 732.0, 733.0, 734.0, 735.0, 735.0, 734.0, 734.0, 735.0, 737.0, 737.0, 736.0, 734.0, 733.0, 733.0, 733.0, 734.0, 735.0, 734.0, 733.0, 732.0, 734.0, 735.0, 736.0, 737.0, 734.0, 733.0, 734.0, 735.0, 734.0, 734.0, 734.0, 736.0, 737.0, 735.0, 735.0, 735.0, 733.0, 733.0, 733.0, 734.0, 734.0, 735.0, 734.0, 735.0, 735.0, 733.0, 733.0, 734.0, 736.0, 735.0, 733.0, 733.0, 735.0],
      "WindowWidth": [1646.0, 1644.0, 1636.0, 1633.0, 1636.0, 1631.0, 1632.0, 1633.0, 1637.0, 1639.0, 1634.0, 1637.0, 1637.0, 1644.0, 1643.0, 1640.0, 1634.0, 1631.0, 1635.0, 1639.0, 1635.0, 1638.0, 1634.0, 1631.0, 1633.0, 1635.0, 1635.0, 1636.0, 1637.0, 1641.0, 1640.0, 1634.0, 1638.0, 1633.0, 1639.0, 1640.0, 1639.0, 1635.0, 1634.0, 1640.0, 1645.0, 1643.0, 1639.0, 1634.0, 1633.0, 1636.0, 1632.0, 1637.0, 1637.0, 1629.0, 1629.0, 1630.0, 1633.0, 1637.0, 1639.0, 1642.0, 1641.0, 1644.0, 1642.0, 1641.0, 1640.0, 1636.0, 1640.0, 1636.0, 1634.0, 1634.0, 1630.0, 1629.0, 1628.0, 1635.0, 1640.0, 1644.0, 1642.0, 1640.0, 1634.0, 1636.0, 1637.0, 1634.0, 1629.0, 1634.0, 1633.0, 1635.0, 1638.0, 1641.0, 1642.0, 1638.0, 1644.0, 1642.0, 1644.0, 1633.0, 1631.0, 1633.0, 1633.0, 1637.0, 1637.0, 1639.0, 1629.0, 1630.0, 1629.0, 1633.0, 1633.0, 1630.0, 1630.0, 1637.0, 1632.0, 1636.0, 1643.0, 1646.0, 1645.0, 1647.0, 1645.0, 1646.0, 1643.0, 1635.0, 1635.0, 1633.0, 1633.0, 1634.0, 1645.0, 1640.0, 1640.0, 1634.0, 1627.0, 1633.0, 1632.0, 1635.0, 1631.0, 1627.0, 1633.0, 1639.0, 1632.0, 1632.0, 1640.0, 1639.0, 1630.0, 1631.0, 1633.0, 1643.0, 1639.0, 1637.0, 1641.0, 1636.0, 1641.0, 1644.0, 1644.0, 1638.0, 1636.0, 1640.0, 1635.0, 1643.0, 1636.0, 1633.0, 1637.0, 1638.0, 1640.0, 1631.0, 1630.0, 1632.0, 1638.0, 1639.0, 1640.0, 1641.0, 1642.0, 1640.0, 1637.0, 1636.0, 1636.0, 1641.0, 1641.0, 1639.0, 1636.0, 1646.0, 1645.0, 1640.0, 1635.0, 1640.0, 1639.0, 1638.0, 1634.0, 1636.0, 1627.0, 1626.0, 1633.0, 1637.0, 1629.0, 1630.0, 1638.0, 1639.0, 1639.0, 1635.0, 1633.0, 1639.0, 1646.0, 1646.0, 1645.0, 1638.0, 1632.0, 1633.0, 1634.0, 1635.0, 1641.0, 1635.0, 1632.0, 1630.0, 1634.0, 1639.0, 1644.0, 1647.0, 1635.0, 1631.0, 1636.0, 1638.0, 1638.0, 1635.0, 1637.0, 1644.0, 1648.0, 1637.0, 1638.0, 1641.0, 1633.0, 1635.0, 1631.0, 1635.0, 1635.0, 1638.0, 1638.0, 1643.0, 1639.0, 1630.0, 1631.0, 1634.0, 1644.0, 1640.0, 1633.0, 1633.0, 1639.0]
    },
    "slices": {}
  }
}