{
  "AcquisitionMatrixPE": 70,
  "AcquisitionNumber": 1,
  "AcquisitionTime": "09:59:24.310000",
  "BandwidthPerPixelPhaseEncode": 38.873,
  "BaseResolution": 70,
  "BodyPartExamined": "HEAD",
  "ConsistencyInfo": "N4_VE11B_LATEST_20150530",
  "ConversionSoftware": "dcm2niix",
  "ConversionSoftwareVersion": "v1.0.20190410  GCC6.3.0",
  "DerivedVendorReportedEchoSpacing": 0.000489996,
  "DeviceSerialNumber": "66088",
  "DwellTime": 2.9e-06,
  "EchoTime": 0.03,
  "EchoTrainLength": 53,
  "EffectiveEchoSpacing": 0.000367497,
  "FlipAngle": 90,
  "ImageOrientationPatientDICOM": [0.99903, 0.0204486, 0.0389942, -0.0017436, 0.903294, -0.429018],
  "ImageType": [
    "ORIGINAL",
    "PRIMARY",
    "M",
    "ND",
    "NORM",
    "MOSAIC"
],
  "ImagingFrequency": 123.191,
  "InPlanePhaseEncodingDirectionDICOM": "COL",
  "InstitutionAddress": "Street_StreetNo_City_District_IR_ZIP",
  "InstitutionName": "NBML",
  "InstitutionalDepartmentName": "Department",
  "MRAcquisitionType": "2D",
  "MagneticFieldStrength": 3,
  "Manufacturer": "Siemens",
  "ManufacturersModelName": "Prisma",
  "Modality": "MR",
  "ParallelReductionFactorInPlane": 2,
  "PartialFourier": 1,
  "PatientPosition": "HFS",
  "PercentPhaseFOV": 100,
  "PhaseEncodingDirection": "j-",
  "PhaseEncodingSteps": 105,
  "PhaseOversampling": 0.5,
  "PhaseResolution": 1,
  "PixelBandwidth": 2465,
  "ProcedureStepDescription": "NBML_Project_P-96169-Ebrahiminiya",
  "ProtocolName": "ep2d_p2_Task_3.5_measurment:237",
  "PulseSequenceDetails": "%SiemensSeq%_ep2d_pace",
  "ReceiveCoilActiveElements": "HC1-7;NC1",
  "ReceiveCoilName": "HeadNeck_64",
  "ReconMatrixPE": 70,
  "RefLinesPE": 24,
  "RepetitionTime": 2,
  "SAR": 0.0942223,
  "ScanOptions": "FS",
  "ScanningSequence": "EP",
  "SequenceName": "_epfid2d1_70",
  "SequenceVariant": "SK_OSP",
  "SeriesDescription": "ep2d_p2_Task_3.5_measurment:237",
  "SeriesNumber": 8,
  "ShimSetting": [2617, -4440, -3194, 457, 23, 103, -160, 62],
  "SliceThickness": 3.5,
  "SliceTiming": [0.99, 0, 1.0475, 0.0575, 1.105, 0.115, 1.165, 0.175, 1.2225, 0.2325, 1.28, 0.29, 1.34, 0.35, 1.3975, 0.4075, 1.455, 0.465, 1.5125, 0.525, 1.5725, 0.5825, 1.63, 0.64, 1.6875, 0.6975, 1.7475, 0.7575, 1.805, 0.815, 1.8625, 0.8725, 1.9225, 0.9325],
  "SoftwareVersions": "syngo_MR_E11",
  "SpacingBetweenSlices": 3.85,
  "StationName": "AWP66088",
  "TaskName": "categorySelectivity",
  "TotalReadoutTime": 0.0253573,
  "TxRefAmp": 274.531,
  "dcmmeta_affine": [
    [-3.539421319961548, -0.006177311297506094, 0.1693846434354782, 125.55367279052734],
    [-0.07244646549224854, 3.200242519378662, -1.6498558521270752, -93.78807830810547],
    [0.13815072178840637, 1.5199496746063232, 3.474447250366211, -93.92389678955078],
    [0.0, 0.0, 0.0, 1.0]
],
  "dcmmeta_reorient_transform": [
    [0.0, -1.0, 0.0, 69.0],
    [1.0, 0.0, 0.0, 0.0],
    [0.0, 0.0, 1.0, 0.0],
    [0.0, 0.0, 0.0, 1.0]
],
  "dcmmeta_shape": [70, 70, 34, 237],
  "dcmmeta_slice_dim": 2,
  "dcmmeta_version": 0.6,
  "global": {
    "const": {
      "AccessionNumber": "M.BRZ",
      "AcquisitionMatrix": [70, 0, 0, 70],
      "AngioFlag": "N",
      "BitsAllocated": 16,
      "BitsStored": 12,
      "BodyPartExamined": "HEAD",
      "Columns": 420,
      "EchoNumbers": 1,
      "EchoTime": 30.0,
      "EchoTrainLength": 53,
      "FlipAngle": 90.0,
      "HighBit": 11,
      "ImageOrientationPatient": [0.99903018505438, 0.02044859874886, 0.0389941554522, -0.0017435958783, 0.90329423477204, -0.4290180477568],
      "ImagePositionPatient": [-743.44512552016, -699.74921436458, 252.76744638025],
      "ImageType": [
        "ORIGINAL",
        "PRIMARY",
        "M",
        "ND",
        "NORM",
        "MOSAIC"
],
      "ImagedNucleus": "1H",
      "ImagingFrequency": 123.191108,
      "InPlanePhaseEncodingDirection": "COL",
      "MRAcquisitionType": "2D",
      "MagneticFieldStrength": 3.0,
      "Manufacturer": "SIEMENS",
      "ManufacturerModelName": "Prisma",
      "Modality": "MR",
      "NumberOfAverages": 1.0,
      "NumberOfPhaseEncodingSteps": 105,
      "PercentPhaseFieldOfView": 100.0,
      "PercentSampling": 100.0,
      "PerformedProcedureStepStartTime": "085708.053000",
      "PhotometricInterpretation": "MONOCHROME2",
      "PixelBandwidth": 2465.0,
      "PixelRepresentation": 0,
      "PixelSpacing": [3.542857170105, 3.542857170105],
      "ProtocolName": "ep2d_p2_Task_3.5_measurment:237",
      "RepetitionTime": 2000.0,
      "Rows": 420,
      "SAR": 0.09422229662693,
      "SamplesPerPixel": 1,
      "ScanOptions": "FS",
      "ScanningSequence": "EP",
      "SequenceName": "*epfid2d1_70",
      "SequenceVariant": [
        "SK",
        "OSP"
],
      "SeriesDescription": "ep2d_p2_Task_3.5_measurment:237",
      "SeriesNumber": 8,
      "SeriesTime": "095934.822000",
      "SliceLocation": -39.046742777036,
      "SliceThickness": 3.5,
      "SmallestImagePixelValue": 0,
      "SoftwareVersions": "syngo MR E11",
      "SpacingBetweenSlices": 3.8499999329472,
      "SpecificCharacterSet": "ISO_IR 100",
      "StudyID": "1",
      "StudyTime": "085707.911000",
      "TransmitCoilName": "Body",
      "VariableFlipAngleFlag": "N",
      "WindowCenterWidthExplanation": "Algo1",
      "dBdt": 0.0},
    "slices": {}
  },
  "time": {
    "samples": {
      "AcquisitionNumber": [1, 2, 3, 4, 5, 6, 7, 8, 9, 10, 11, 12, 13, 14, 15, 16, 17, 18, 19, 20, 21, 22, 23, 24, 25, 26, 27, 28, 29, 30, 31, 32, 33, 34, 35, 36, 37, 38, 39, 40, 41, 42, 43, 44, 45, 46, 47, 48, 49, 50, 51, 52, 53, 54, 55, 56, 57, 58, 59, 60, 61, 62, 63, 64, 65, 66, 67, 68, 69, 70, 71, 72, 73, 74, 75, 76, 77, 78, 79, 80, 81, 82, 83, 84, 85, 86, 87, 88, 89, 90, 91, 92, 93, 94, 95, 96, 97, 98, 99, 100, 101, 102, 103, 104, 105, 106, 107, 108, 109, 110, 111, 112, 113, 114, 115, 116, 117, 118, 119, 120, 121, 122, 123, 124, 125, 126, 127, 128, 129, 130, 131, 132, 133, 134, 135, 136, 137, 138, 139, 140, 141, 142, 143, 144, 145, 146, 147, 148, 149, 150, 151, 152, 153, 154, 155, 156, 157, 158, 159, 160, 161, 162, 163, 164, 165, 166, 167, 168, 169, 170, 171, 172, 173, 174, 175, 176, 177, 178, 179, 180, 181, 182, 183, 184, 185, 186, 187, 188, 189, 190, 191, 192, 193, 194, 195, 196, 197, 198, 199, 200, 201, 202, 203, 204, 205, 206, 207, 208, 209, 210, 211, 212, 213, 214, 215, 216, 217, 218, 219, 220, 221, 222, 223, 224, 225, 226, 227, 228, 229, 230, 231, 232, 233, 234, 235, 236, 237],
      "AcquisitionTime": ["095924.310000", "095926.310000", "095928.310000", "095930.310000", "095932.310000", "095934.310000", "095936.310000", "095938.310000", "095940.310000", "095942.310000", "095944.310000", "095946.310000", "095948.310000", "095950.310000", "095952.310000", "095954.310000", "095956.310000", "095958.310000", "100000.310000", "100002.310000", "100004.310000", "100006.310000", "100008.310000", "100010.310000", "100012.310000", "100014.310000", "100016.310000", "100018.310000", "100020.310000", "100022.310000", "100024.310000", "100026.310000", "100028.310000", "100030.310000", "100032.310000", "100034.310000", "100036.310000", "100038.310000", "100040.310000", "100042.310000", "100044.310000", "100046.310000", "100048.310000", "100050.310000", "100052.310000", "100054.310000", "100056.310000", "100058.310000", "100100.310000", "100102.310000", "100104.310000", "100106.310000", "100108.310000", "100110.310000", "100112.310000", "100114.310000", "100116.310000", "100118.310000", "100120.310000", "100122.310000", "100124.310000", "100126.310000", "100128.310000", "100130.310000", "100132.310000", "100134.310000", "100136.310000", "100138.310000", "100140.310000", "100142.310000", "100144.310000", "100146.310000", "100148.310000", "100150.310000", "100152.310000", "100154.310000", "100156.310000", "100158.310000", "100200.310000", "100202.310000", "100204.310000", "100206.310000", "100208.310000", "100210.310000", "100212.310000", "100214.310000", "100216.310000", "100218.310000", "100220.310000", "100222.310000", "100224.310000", "100226.310000", "100228.310000", "100230.310000", "100232.310000", "100234.310000", "100236.310000", "100238.310000", "100240.310000", "100242.310000", "100244.310000", "100246.310000", "100248.310000", "100250.310000", "100252.310000", "100254.310000", "100256.310000", "100258.310000", "100300.310000", "100302.310000", "100304.310000", "100306.310000", "100308.310000", "100310.310000", "100312.310000", "100314.310000", "100316.310000", "100318.310000", "100320.310000", "100322.310000", "100324.310000", "100326.310000", "100328.310000", "100330.310000", "100332.310000", "100334.310000", "100336.310000", "100338.310000", "100340.310000", "100342.310000", "100344.310000", "100346.310000", "100348.310000", "100350.310000", "100352.310000", "100354.310000", "100356.310000", "100358.310000", "100400.310000", "100402.310000", "100404.310000", "100406.310000", "100408.310000", "100410.310000", "100412.310000", "100414.310000", "100416.310000", "100418.310000", "100420.310000", "100422.310000", "100424.310000", "100426.310000", "100428.310000", "100430.310000", "100432.310000", "100434.310000", "100436.310000", "100438.310000", "100440.310000", "100442.310000", "100444.310000", "100446.310000", "100448.310000", "100450.310000", "100452.310000", "100454.310000", "100456.310000", "100458.310000", "100500.310000", "100502.310000", "100504.310000", "100506.310000", "100508.310000", "100510.310000", "100512.310000", "100514.310000", "100516.310000", "100518.310000", "100520.310000", "100522.310000", "100524.310000", "100526.310000", "100528.310000", "100530.310000", "100532.310000", "100534.310000", "100536.310000", "100538.310000", "100540.310000", "100542.310000", "100544.310000", "100546.310000", "100548.310000", "100550.310000", "100552.310000", "100554.310000", "100556.310000", "100558.310000", "100600.310000", "100602.310000", "100604.310000", "100606.310000", "100608.310000", "100610.310000", "100612.310000", "100614.310000", "100616.310000", "100618.310000", "100620.310000", "100622.310000", "100624.310000", "100626.310000", "100628.310000", "100630.310000", "100632.310000", "100634.310000", "100636.310000", "100638.310000", "100640.310000", "100642.310000", "100644.310000", "100646.310000", "100648.310000", "100650.310000", "100652.310000", "100654.310000", "100656.310000", "100658.310000", "100700.310000", "100702.310000", "100704.310000", "100706.310000", "100708.310000", "100710.310000", "100712.310000", "100714.310000", "100716.310000"],
      "ContentTime": ["095934.825000", "095934.829000", "095934.832000", "095934.834000", "095934.837000", "100014.819000", "100014.822000", "100014.825000", "100014.827000", "100014.829000", "100014.832000", "100014.834000", "100014.845000", "100014.848000", "100014.851000", "100014.855000", "100014.858000", "100014.861000", "100014.865000", "100014.881000", "100014.885000", "100014.889000", "100014.892000", "100014.895000", "100014.898000", "100054.819000", "100054.824000", "100054.826000", "100054.829000", "100054.831000", "100054.847000", "100054.850000", "100054.857000", "100054.860000", "100054.863000", "100054.866000", "100054.870000", "100054.873000", "100054.876000", "100054.879000", "100054.883000", "100054.886000", "100054.889000", "100054.892000", "100054.907000", "100134.820000", "100134.835000", "100134.838000", "100134.841000", "100134.844000", "100134.847000", "100134.850000", "100134.853000", "100134.856000", "100134.859000", "100134.862000", "100134.866000", "100134.869000", "100134.872000", "100134.875000", "100134.879000", "100134.882000", "100134.885000", "100134.888000", "100134.891000", "100214.819000", "100214.822000", "100214.824000", "100214.827000", "100214.829000", "100214.832000", "100214.834000", "100214.837000", "100214.840000", "100214.843000", "100214.846000", "100214.850000", "100214.853000", "100214.856000", "100214.859000", "100214.862000", "100214.865000", "100214.869000", "100214.877000", "100214.880000", "100254.819000", "100254.823000", "100254.825000", "100254.828000", "100254.830000", "100254.832000", "100254.835000", "100254.838000", "100254.841000", "100254.844000", "100254.847000", "100254.851000", "100254.854000", "100254.857000", "100254.860000", "100254.863000", "100254.866000", "100254.869000", "100254.873000", "100254.876000", "100334.820000", "100334.823000", "100334.825000", "100334.828000", "100334.830000", "100334.832000", "100334.835000", "100334.838000", "100334.841000", "100334.844000", "100334.847000", "100334.851000", "100334.854000", "100334.857000", "100334.860000", "100334.863000", "100334.867000", "100334.870000", "100334.873000", "100334.876000", "100414.822000", "100414.824000", "100414.827000", "100414.829000", "100414.832000", "100414.834000", "100414.837000", "100414.840000", "100414.843000", "100414.846000", "100414.849000", "100414.853000", "100414.856000", "100414.859000", "100414.862000", "100414.865000", "100414.869000", "100414.872000", "100414.875000", "100414.878000", "100454.820000", "100454.823000", "100454.825000", "100454.828000", "100454.830000", "100454.833000", "100454.835000", "100454.839000", "100454.842000", "100454.845000", "100454.848000", "100454.851000", "100454.855000", "100454.858000", "100454.861000", "100454.864000", "100454.867000", "100454.870000", "100454.873000", "100454.876000", "100534.819000", "100534.822000", "100534.825000", "100534.827000", "100534.830000", "100534.832000", "100534.835000", "100534.838000", "100534.841000", "100534.844000", "100534.847000", "100534.850000", "100534.854000", "100534.857000", "100534.860000", "100534.863000", "100534.866000", "100534.869000", "100534.872000", "100534.875000", "100614.820000", "100614.823000", "100614.826000", "100614.828000", "100614.831000", "100614.833000", "100614.836000", "100614.839000", "100614.842000", "100614.845000", "100614.848000", "100614.851000", "100614.855000", "100614.858000", "100614.860000", "100614.864000", "100614.867000", "100614.870000", "100614.873000", "100614.876000", "100654.819000", "100654.822000", "100654.825000", "100654.827000", "100654.830000", "100654.832000", "100654.834000", "100654.837000", "100654.841000", "100654.844000", "100654.847000", "100654.850000", "100654.854000", "100654.857000", "100654.860000", "100654.863000", "100654.866000", "100654.870000", "100654.873000", "100654.876000", "100717.628000", "100717.632000", "100717.635000", "100717.639000", "100717.642000", "100717.645000", "100717.648000", "100717.653000", "100717.658000", "100717.661000", "100717.666000", "100717.669000"],
      "InstanceCreationTime": ["095934.825000", "095934.829000", "095934.832000", "095934.834000", "095934.837000", "100014.819000", "100014.822000", "100014.825000", "100014.827000", "100014.829000", "100014.832000", "100014.834000", "100014.845000", "100014.848000", "100014.851000", "100014.855000", "100014.858000", "100014.861000", "100014.865000", "100014.881000", "100014.885000", "100014.889000", "100014.892000", "100014.895000", "100014.898000", "100054.819000", "100054.824000", "100054.826000", "100054.829000", "100054.831000", "100054.847000", "100054.850000", "100054.857000", "100054.860000", "100054.863000", "100054.866000", "100054.870000", "100054.873000", "100054.876000", "100054.879000", "100054.883000", "100054.886000", "100054.889000", "100054.892000", "100054.907000", "100134.820000", "100134.835000", "100134.838000", "100134.841000", "100134.844000", "100134.847000", "100134.850000", "100134.853000", "100134.856000", "100134.859000", "100134.862000", "100134.866000", "100134.869000", "100134.872000", "100134.875000", "100134.879000", "100134.882000", "100134.885000", "100134.888000", "100134.891000", "100214.819000", "100214.822000", "100214.824000", "100214.827000", "100214.829000", "100214.832000", "100214.834000", "100214.837000", "100214.840000", "100214.843000", "100214.846000", "100214.850000", "100214.853000", "100214.856000", "100214.859000", "100214.862000", "100214.865000", "100214.869000", "100214.877000", "100214.880000", "100254.819000", "100254.823000", "100254.825000", "100254.828000", "100254.830000", "100254.832000", "100254.835000", "100254.838000", "100254.841000", "100254.844000", "100254.847000", "100254.851000", "100254.854000", "100254.857000", "100254.860000", "100254.863000", "100254.866000", "100254.869000", "100254.873000", "100254.876000", "100334.820000", "100334.823000", "100334.825000", "100334.828000", "100334.830000", "100334.832000", "100334.835000", "100334.838000", "100334.841000", "100334.844000", "100334.847000", "100334.851000", "100334.854000", "100334.857000", "100334.860000", "100334.863000", "100334.867000", "100334.870000", "100334.873000", "100334.876000", "100414.822000", "100414.824000", "100414.827000", "100414.829000", "100414.832000", "100414.834000", "100414.837000", "100414.840000", "100414.843000", "100414.846000", "100414.849000", "100414.853000", "100414.856000", "100414.859000", "100414.862000", "100414.865000", "100414.869000", "100414.872000", "100414.875000", "100414.878000", "100454.820000", "100454.823000", "100454.825000", "100454.828000", "100454.830000", "100454.833000", "100454.835000", "100454.839000", "100454.842000", "100454.845000", "100454.848000", "100454.851000", "100454.855000", "100454.858000", "100454.861000", "100454.864000", "100454.867000", "100454.870000", "100454.873000", "100454.876000", "100534.819000", "100534.822000", "100534.825000", "100534.827000", "100534.830000", "100534.832000", "100534.835000", "100534.838000", "100534.841000", "100534.844000", "100534.847000", "100534.850000", "100534.854000", "100534.857000", "100534.860000", "100534.863000", "100534.866000", "100534.869000", "100534.872000", "100534.875000", "100614.820000", "100614.823000", "100614.826000", "100614.828000", "100614.831000", "100614.833000", "100614.836000", "100614.839000", "100614.842000", "100614.845000", "100614.848000", "100614.851000", "100614.855000", "100614.858000", "100614.860000", "100614.864000", "100614.867000", "100614.870000", "100614.873000", "100614.876000", "100654.819000", "100654.822000", "100654.825000", "100654.827000", "100654.830000", "100654.832000", "100654.834000", "100654.837000", "100654.841000", "100654.844000", "100654.847000", "100654.850000", "100654.854000", "100654.857000", "100654.860000", "100654.863000", "100654.866000", "100654.870000", "100654.873000", "100654.876000", "100717.628000", "100717.632000", "100717.635000", "100717.639000", "100717.642000", "100717.645000", "100717.648000", "100717.653000", "100717.658000", "100717.661000", "100717.666000", "100717.669000"],
      "InstanceNumber": [1, 2, 3, 4, 5, 6, 7, 8, 9, 10, 11, 12, 13, 14, 15, 16, 17, 18, 19, 20, 21, 22, 23, 24, 25, 26, 27, 28, 29, 30, 31, 32, 33, 34, 35, 36, 37, 38, 39, 40, 41, 42, 43, 44, 45, 46, 47, 48, 49, 50, 51, 52, 53, 54, 55, 56, 57, 58, 59, 60, 61, 62, 63, 64, 65, 66, 67, 68, 69, 70, 71, 72, 73, 74, 75, 76, 77, 78, 79, 80, 81, 82, 83, 84, 85, 86, 87, 88, 89, 90, 91, 92, 93, 94, 95, 96, 97, 98, 99, 100, 101, 102, 103, 104, 105, 106, 107, 108, 109, 110, 111, 112, 113, 114, 115, 116, 117, 118, 119, 120, 121, 122, 123, 124, 125, 126, 127, 128, 129, 130, 131, 132, 133, 134, 135, 136, 137, 138, 139, 140, 141, 142, 143, 144, 145, 146, 147, 148, 149, 150, 151, 152, 153, 154, 155, 156, 157, 158, 159, 160, 161, 162, 163, 164, 165, 166, 167, 168, 169, 170, 171, 172, 173, 174, 175, 176, 177, 178, 179, 180, 181, 182, 183, 184, 185, 186, 187, 188, 189, 190, 191, 192, 193, 194, 195, 196, 197, 198, 199, 200, 201, 202, 203, 204, 205, 206, 207, 208, 209, 210, 211, 212, 213, 214, 215, 216, 217, 218, 219, 220, 221, 222, 223, 224, 225, 226, 227, 228, 229, 230, 231, 232, 233, 234, 235, 236, 237],
      "LargestImagePixelValue": [2167, 2458, 2236, 1893, 1879, 1914, 2173, 2110, 2059, 2259, 2149, 2261, 1960, 2004, 2102, 2440, 2237, 2308, 1989, 1932, 1865, 1926, 1912, 1899, 1879, 2223, 2475, 2462, 2313, 2404, 2246, 1890, 1926, 2313, 2038, 2448, 1898, 1889, 1912, 2041, 2078, 2558, 2095, 1888, 2192, 2229, 2497, 2252, 1832, 1922, 2473, 2127, 2595, 2386, 1955, 1855, 1880, 2251, 2171, 2485, 2267, 1839, 1853, 2332, 2515, 3124, 1869, 1898, 2392, 2403, 1854, 1897, 1890, 2333, 2039, 2586, 1975, 1916, 2196, 2144, 2225, 2025, 2372, 2449, 2815, 1846, 1890, 2576, 2239, 2774, 1896, 1917, 2473, 2171, 2534, 2505, 1904, 1848, 1922, 2430, 2441, 2777, 1862, 1887, 2323, 2369, 2411, 2850, 2570, 2113, 1915, 1970, 1878, 2251, 2626, 2419, 2799, 1884, 2295, 2198, 2719, 2563, 1879, 1956, 2481, 2689, 1903, 2065, 2305, 2946, 1862, 2077, 2456, 2447, 2606, 1895, 2096, 2163, 2665, 2139, 2517, 2501, 2267, 2107, 1902, 1867, 2364, 2619, 2601, 2361, 2450, 2413, 2603, 1826, 2104, 2310, 2147, 2400, 2145, 2779, 2213, 1876, 2042, 2254, 2739, 2616, 2111, 1992, 1864, 1961, 2020, 2192, 2266, 2809, 2462, 3050, 2343, 2641, 2516, 2097, 1919, 1924, 2302, 2286, 2490, 2644, 1855, 1892, 2482, 2307, 2487, 2120, 1904, 2209, 2724, 2671, 1866, 1909, 2296, 2893, 1932, 2080, 1875, 2468, 2535, 2567, 2120, 1898, 1894, 2069, 2410, 2718, 1854, 2982, 2375, 2423, 2981, 2713, 1838, 1880, 2272, 2964, 1878, 1862, 2378, 2452, 2086, 1917, 2187, 2608, 2463, 1874, 1870, 2468, 2527, 3086, 2261],
      "WindowCenter": [737.0, 737.0, 736.0, 735.0, 735.0, 735.0, 735.0, 735.0, 736.0, 736.0, 736.0, 736.0, 736.0, 736.0, 735.0, 736.0, 735.0, 735.0, 734.0, 734.0, 735.0, 736.0, 736.0, 736.0, 735.0, 736.0, 737.0, 736.0, 735.0, 736.0, 736.0, 734.0, 734.0, 735.0, 734.0, 735.0, 735.0, 734.0, 735.0, 735.0, 736.0, 736.0, 736.0, 736.0, 736.0, 736.0, 736.0, 736.0, 735.0, 735.0, 735.0, 735.0, 735.0, 735.0, 734.0, 734.0, 735.0, 736.0, 736.0, 736.0, 736.0, 735.0, 736.0, 736.0, 736.0, 737.0, 734.0, 734.0, 735.0, 735.0, 734.0, 734.0, 734.0, 735.0, 735.0, 736.0, 735.0, 735.0, 735.0, 736.0, 736.0, 736.0, 736.0, 736.0, 736.0, 734.0, 734.0, 735.0, 734.0, 735.0, 734.0, 734.0, 735.0, 735.0, 735.0, 735.0, 734.0, 735.0, 735.0, 736.0, 736.0, 737.0, 735.0, 735.0, 735.0, 735.0, 735.0, 736.0, 735.0, 734.0, 734.0, 735.0, 735.0, 736.0, 737.0, 737.0, 737.0, 736.0, 736.0, 735.0, 736.0, 736.0, 734.0, 734.0, 736.0, 736.0, 735.0, 735.0, 735.0, 737.0, 735.0, 735.0, 736.0, 735.0, 736.0, 735.0, 736.0, 735.0, 736.0, 735.0, 736.0, 736.0, 736.0, 736.0, 736.0, 736.0, 737.0, 736.0, 735.0, 735.0, 735.0, 735.0, 736.0, 735.0, 735.0, 735.0, 735.0, 735.0, 736.0, 737.0, 736.0, 735.0, 735.0, 736.0, 736.0, 735.0, 734.0, 734.0, 734.0, 735.0, 735.0, 737.0, 738.0, 738.0, 737.0, 737.0, 735.0, 736.0, 735.0, 735.0, 734.0, 734.0, 735.0, 735.0, 736.0, 737.0, 735.0, 735.0, 736.0, 735.0, 735.0, 735.0, 736.0, 736.0, 737.0, 736.0, 735.0, 735.0, 736.0, 737.0, 735.0, 734.0, 734.0, 735.0, 736.0, 735.0, 735.0, 735.0, 736.0, 736.0, 737.0, 738.0, 736.0, 738.0, 735.0, 735.0, 736.0, 735.0, 733.0, 734.0, 736.0, 737.0, 734.0, 734.0, 735.0, 735.0, 734.0, 735.0, 736.0, 736.0, 736.0, 734.0, 735.0, 736.0, 736.0, 736.0, 735.0],
      "WindowWidth": [1645.0, 1648.0, 1644.0, 1639.0, 1637.0, 1638.0, 1640.0, 1640.0, 1640.0, 1642.0, 1641.0, 1642.0, 1641.0, 1640.0, 1640.0, 1643.0, 1640.0, 1638.0, 1636.0, 1635.0, 1638.0, 1643.0, 1642.0, 1640.0, 1640.0, 1644.0, 1646.0, 1643.0, 1640.0, 1641.0, 1641.0, 1636.0, 1635.0, 1638.0, 1637.0, 1640.0, 1637.0, 1635.0, 1637.0, 1640.0, 1641.0, 1644.0, 1642.0, 1640.0, 1642.0, 1642.0, 1642.0, 1641.0, 1638.0, 1639.0, 1641.0, 1637.0, 1641.0, 1638.0, 1634.0, 1636.0, 1637.0, 1641.0, 1641.0, 1641.0, 1642.0, 1638.0, 1641.0, 1644.0, 1644.0, 1647.0, 1635.0, 1634.0, 1639.0, 1640.0, 1635.0, 1635.0, 1635.0, 1638.0, 1637.0, 1644.0, 1639.0, 1639.0, 1640.0, 1642.0, 1643.0, 1641.0, 1642.0, 1641.0, 1645.0, 1635.0, 1635.0, 1640.0, 1636.0, 1642.0, 1636.0, 1636.0, 1640.0, 1637.0, 1640.0, 1641.0, 1635.0, 1636.0, 1637.0, 1642.0, 1643.0, 1646.0, 1638.0, 1636.0, 1638.0, 1638.0, 1640.0, 1644.0, 1641.0, 1636.0, 1633.0, 1637.0, 1639.0, 1644.0, 1645.0, 1645.0, 1648.0, 1640.0, 1641.0, 1638.0, 1642.0, 1642.0, 1635.0, 1636.0, 1641.0, 1643.0, 1637.0, 1638.0, 1640.0, 1646.0, 1637.0, 1640.0, 1642.0, 1640.0, 1641.0, 1637.0, 1640.0, 1640.0, 1642.0, 1639.0, 1643.0, 1644.0, 1643.0, 1641.0, 1643.0, 1641.0, 1644.0, 1643.0, 1641.0, 1637.0, 1638.0, 1640.0, 1643.0, 1636.0, 1638.0, 1639.0, 1639.0, 1640.0, 1641.0, 1647.0, 1642.0, 1639.0, 1639.0, 1641.0, 1643.0, 1640.0, 1636.0, 1634.0, 1634.0, 1637.0, 1639.0, 1644.0, 1648.0, 1650.0, 1646.0, 1646.0, 1639.0, 1643.0, 1641.0, 1637.0, 1634.0, 1634.0, 1639.0, 1640.0, 1641.0, 1646.0, 1638.0, 1638.0, 1643.0, 1639.0, 1640.0, 1640.0, 1640.0, 1642.0, 1645.0, 1644.0, 1636.0, 1637.0, 1643.0, 1646.0, 1638.0, 1636.0, 1634.0, 1640.0, 1642.0, 1641.0, 1637.0, 1637.0, 1640.0, 1643.0, 1647.0, 1652.0, 1642.0, 1649.0, 1640.0, 1640.0, 1644.0, 1640.0, 1632.0, 1636.0, 1642.0, 1646.0, 1635.0, 1635.0, 1639.0, 1640.0, 1636.0, 1637.0, 1643.0, 1643.0, 1642.0, 1635.0, 1638.0, 1642.0, 1642.0, 1645.0, 1637.0]
    },
    "slices": {}
  }
}