{
  "AcquisitionMatrixPE": 70,
  "AcquisitionNumber": 1,
  "AcquisitionTime": "09:31:59.397500",
  "BandwidthPerPixelPhaseEncode": 38.873,
  "BaseResolution": 70,
  "BodyPartExamined": "HEAD",
  "ConsistencyInfo": "N4_VE11B_LATEST_20150530",
  "ConversionSoftware": "dcm2niix",
  "ConversionSoftwareVersion": "v1.0.20190410  GCC6.3.0",
  "DerivedVendorReportedEchoSpacing": 0.000489996,
  "DeviceSerialNumber": "66088",
  "DwellTime": 2.9e-06,
  "EchoTime": 0.03,
  "EchoTrainLength": 53,
  "EffectiveEchoSpacing": 0.000367497,
  "FlipAngle": 90,
  "ImageOrientationPatientDICOM": [0.99903, 0.0204486, 0.0389942, -0.0017436, 0.903294, -0.429018],
  "ImageType": [
    "ORIGINAL",
    "PRIMARY",
    "M",
    "ND",
    "NORM",
    "MOSAIC"
],
  "ImagingFrequency": 123.191,
  "InPlanePhaseEncodingDirectionDICOM": "COL",
  "InstitutionAddress": "Street_StreetNo_City_District_IR_ZIP",
  "InstitutionName": "NBML",
  "InstitutionalDepartmentName": "Department",
  "MRAcquisitionType": "2D",
  "MagneticFieldStrength": 3,
  "Manufacturer": "Siemens",
  "ManufacturersModelName": "Prisma",
  "Modality": "MR",
  "ParallelReductionFactorInPlane": 2,
  "PartialFourier": 1,
  "PatientPosition": "HFS",
  "PercentPhaseFOV": 100,
  "PhaseEncodingDirection": "j-",
  "PhaseEncodingSteps": 105,
  "PhaseOversampling": 0.5,
  "PhaseResolution": 1,
  "PixelBandwidth": 2465,
  "ProcedureStepDescription": "NBML_Project_P-96169-Ebrahiminiya",
  "ProtocolName": "ep2d_p2_Task_3.5_measurment:237",
  "PulseSequenceDetails": "%SiemensSeq%_ep2d_pace",
  "ReceiveCoilActiveElements": "HC1-7;NC1",
  "ReceiveCoilName": "HeadNeck_64",
  "ReconMatrixPE": 70,
  "RefLinesPE": 24,
  "RepetitionTime": 2,
  "SAR": 0.0942223,
  "ScanOptions": "FS",
  "ScanningSequence": "EP",
  "SequenceName": "_epfid2d1_70",
  "SequenceVariant": "SK_OSP",
  "SeriesDescription": "ep2d_p2_Task_3.5_measurment:237",
  "SeriesNumber": 5,
  "ShimSetting": [2617, -4440, -3194, 457, 23, 103, -160, 62],
  "SliceThickness": 3.5,
  "SliceTiming": [0.99, 0, 1.0475, 0.0575, 1.105, 0.115, 1.1625, 0.1725, 1.2225, 0.2325, 1.28, 0.29, 1.3375, 0.3475, 1.3975, 0.4075, 1.455, 0.465, 1.5125, 0.5225, 1.57, 0.5825, 1.63, 0.64, 1.6875, 0.6975, 1.745, 0.755, 1.805, 0.815, 1.8625, 0.8725, 1.92, 0.93],
  "SoftwareVersions": "syngo_MR_E11",
  "SpacingBetweenSlices": 3.85,
  "StationName": "AWP66088",
  "TaskName": "categorySelectivity",
  "TotalReadoutTime": 0.0253573,
  "TxRefAmp": 274.531,
  "dcmmeta_affine": [
    [-3.539421319961548, -0.006177311297506094, 0.1693846434354782, 125.55367279052734],
    [-0.07244646549224854, 3.200242519378662, -1.6498558521270752, -93.78807830810547],
    [0.13815072178840637, 1.5199496746063232, 3.474447250366211, -93.92389678955078],
    [0.0, 0.0, 0.0, 1.0]
],
  "dcmmeta_reorient_transform": [
    [0.0, -1.0, 0.0, 69.0],
    [1.0, 0.0, 0.0, 0.0],
    [0.0, 0.0, 1.0, 0.0],
    [0.0, 0.0, 0.0, 1.0]
],
  "dcmmeta_shape": [70, 70, 34, 237],
  "dcmmeta_slice_dim": 2,
  "dcmmeta_version": 0.6,
  "global": {
    "const": {
      "AccessionNumber": "M.BRZ",
      "AcquisitionMatrix": [70, 0, 0, 70],
      "AngioFlag": "N",
      "BitsAllocated": 16,
      "BitsStored": 12,
      "BodyPartExamined": "HEAD",
      "Columns": 420,
      "EchoNumbers": 1,
      "EchoTime": 30.0,
      "EchoTrainLength": 53,
      "FlipAngle": 90.0,
      "HighBit": 11,
      "ImageOrientationPatient": [0.99903018505438, 0.02044859874886, 0.0389941554522, -0.0017435958783, 0.90329423477204, -0.4290180477568],
      "ImagePositionPatient": [-743.44512552016, -699.74921436458, 252.76744638025],
      "ImageType": [
        "ORIGINAL",
        "PRIMARY",
        "M",
        "ND",
        "NORM",
        "MOSAIC"
],
      "ImagedNucleus": "1H",
      "ImagingFrequency": 123.19111,
      "InPlanePhaseEncodingDirection": "COL",
      "MRAcquisitionType": "2D",
      "MagneticFieldStrength": 3.0,
      "Manufacturer": "SIEMENS",
      "ManufacturerModelName": "Prisma",
      "Modality": "MR",
      "NumberOfAverages": 1.0,
      "NumberOfPhaseEncodingSteps": 105,
      "PercentPhaseFieldOfView": 100.0,
      "PercentSampling": 100.0,
      "PerformedProcedureStepStartTime": "085708.053000",
      "PhotometricInterpretation": "MONOCHROME2",
      "PixelBandwidth": 2465.0,
      "PixelRepresentation": 0,
      "PixelSpacing": [3.542857170105, 3.542857170105],
      "ProtocolName": "ep2d_p2_Task_3.5_measurment:237",
      "RepetitionTime": 2000.0,
      "Rows": 420,
      "SAR": 0.09422229662693,
      "SamplesPerPixel": 1,
      "ScanOptions": "FS",
      "ScanningSequence": "EP",
      "SequenceName": "*epfid2d1_70",
      "SequenceVariant": [
        "SK",
        "OSP"
],
      "SeriesDescription": "ep2d_p2_Task_3.5_measurment:237",
      "SeriesNumber": 5,
      "SeriesTime": "093254.841000",
      "SliceLocation": -39.046742777036,
      "SliceThickness": 3.5,
      "SmallestImagePixelValue": 0,
      "SoftwareVersions": "syngo MR E11",
      "SpacingBetweenSlices": 3.8499999329472,
      "SpecificCharacterSet": "ISO_IR 100",
      "StudyID": "1",
      "StudyTime": "085707.911000",
      "TransmitCoilName": "Body",
      "VariableFlipAngleFlag": "N",
      "WindowCenterWidthExplanation": "Algo1",
      "dBdt": 0.0},
    "slices": {}
  },
  "time": {
    "samples": {
      "AcquisitionNumber": [1, 2, 3, 4, 5, 6, 7, 8, 9, 10, 11, 12, 13, 14, 15, 16, 17, 18, 19, 20, 21, 22, 23, 24, 25, 26, 27, 28, 29, 30, 31, 32, 33, 34, 35, 36, 37, 38, 39, 40, 41, 42, 43, 44, 45, 46, 47, 48, 49, 50, 51, 52, 53, 54, 55, 56, 57, 58, 59, 60, 61, 62, 63, 64, 65, 66, 67, 68, 69, 70, 71, 72, 73, 74, 75, 76, 77, 78, 79, 80, 81, 82, 83, 84, 85, 86, 87, 88, 89, 90, 91, 92, 93, 94, 95, 96, 97, 98, 99, 100, 101, 102, 103, 104, 105, 106, 107, 108, 109, 110, 111, 112, 113, 114, 115, 116, 117, 118, 119, 120, 121, 122, 123, 124, 125, 126, 127, 128, 129, 130, 131, 132, 133, 134, 135, 136, 137, 138, 139, 140, 141, 142, 143, 144, 145, 146, 147, 148, 149, 150, 151, 152, 153, 154, 155, 156, 157, 158, 159, 160, 161, 162, 163, 164, 165, 166, 167, 168, 169, 170, 171, 172, 173, 174, 175, 176, 177, 178, 179, 180, 181, 182, 183, 184, 185, 186, 187, 188, 189, 190, 191, 192, 193, 194, 195, 196, 197, 198, 199, 200, 201, 202, 203, 204, 205, 206, 207, 208, 209, 210, 211, 212, 213, 214, 215, 216, 217, 218, 219, 220, 221, 222, 223, 224, 225, 226, 227, 228, 229, 230, 231, 232, 233, 234, 235, 236, 237],
      "AcquisitionTime": ["093159.397500", "093201.397500", "093203.397500", "093205.397500", "093207.397500", "093209.397500", "093211.397500", "093213.397500", "093215.397500", "093217.397500", "093219.397500", "093221.397500", "093223.397500", "093225.397500", "093227.397500", "093229.397500", "093231.397500", "093233.397500", "093235.397500", "093237.397500", "093239.397500", "093241.397500", "093243.397500", "093245.397500", "093247.397500", "093249.397500", "093251.397500", "093253.397500", "093255.397500", "093257.397500", "093259.397500", "093301.397500", "093303.397500", "093305.397500", "093307.397500", "093309.397500", "093311.397500", "093313.397500", "093315.397500", "093317.397500", "093319.397500", "093321.397500", "093323.397500", "093325.397500", "093327.397500", "093329.397500", "093331.397500", "093333.397500", "093335.397500", "093337.397500", "093339.397500", "093341.397500", "093343.397500", "093345.397500", "093347.397500", "093349.397500", "093351.397500", "093353.397500", "093355.397500", "093357.397500", "093359.397500", "093401.397500", "093403.397500", "093405.397500", "093407.397500", "093409.397500", "093411.397500", "093413.397500", "093415.397500", "093417.397500", "093419.397500", "093421.397500", "093423.397500", "093425.397500", "093427.397500", "093429.397500", "093431.397500", "093433.397500", "093435.397500", "093437.397500", "093439.397500", "093441.397500", "093443.397500", "093445.397500", "093447.397500", "093449.397500", "093451.397500", "093453.397500", "093455.397500", "093457.397500", "093459.397500", "093501.397500", "093503.397500", "093505.397500", "093507.397500", "093509.397500", "093511.397500", "093513.397500", "093515.397500", "093517.397500", "093519.397500", "093521.397500", "093523.397500", "093525.397500", "093527.397500", "093529.397500", "093531.397500", "093533.397500", "093535.397500", "093537.397500", "093539.397500", "093541.397500", "093543.397500", "093545.397500", "093547.397500", "093549.397500", "093551.397500", "093553.397500", "093555.397500", "093557.397500", "093559.397500", "093601.397500", "093603.397500", "093605.397500", "093607.397500", "093609.397500", "093611.397500", "093613.397500", "093615.397500", "093617.397500", "093619.397500", "093621.397500", "093623.397500", "093625.397500", "093627.397500", "093629.397500", "093631.397500", "093633.397500", "093635.397500", "093637.397500", "093639.397500", "093641.397500", "093643.397500", "093645.397500", "093647.397500", "093649.397500", "093651.397500", "093653.397500", "093655.397500", "093657.397500", "093659.397500", "093701.397500", "093703.397500", "093705.397500", "093707.397500", "093709.397500", "093711.397500", "093713.397500", "093715.397500", "093717.397500", "093719.397500", "093721.397500", "093723.397500", "093725.397500", "093727.397500", "093729.397500", "093731.397500", "093733.397500", "093735.397500", "093737.397500", "093739.397500", "093741.397500", "093743.397500", "093745.397500", "093747.397500", "093749.397500", "093751.397500", "093753.397500", "093755.397500", "093757.397500", "093759.397500", "093801.397500", "093803.397500", "093805.397500", "093807.397500", "093809.397500", "093811.397500", "093813.397500", "093815.397500", "093817.397500", "093819.397500", "093821.397500", "093823.397500", "093825.397500", "093827.397500", "093829.397500", "093831.397500", "093833.397500", "093835.397500", "093837.397500", "093839.397500", "093841.397500", "093843.397500", "093845.397500", "093847.397500", "093849.397500", "093851.397500", "093853.397500", "093855.397500", "093857.397500", "093859.397500", "093901.397500", "093903.397500", "093905.397500", "093907.397500", "093909.397500", "093911.397500", "093913.397500", "093915.397500", "093917.397500", "093919.397500", "093921.397500", "093923.397500", "093925.397500", "093927.397500", "093929.397500", "093931.397500", "093933.397500", "093935.397500", "093937.397500", "093939.397500", "093941.397500", "093943.397500", "093945.397500", "093947.397500", "093949.397500", "093951.397500"],
      "ContentTime": ["093254.847000", "093254.851000", "093254.854000", "093254.857000", "093254.860000", "093254.869000", "093254.872000", "093254.875000", "093254.879000", "093254.882000", "093254.885000", "093254.892000", "093254.895000", "093254.903000", "093254.906000", "093254.910000", "093254.913000", "093254.916000", "093254.919000", "093254.923000", "093254.926000", "093254.929000", "093254.932000", "093254.935000", "093254.951000", "093254.954000", "093254.957000", "093254.963000", "093334.820000", "093334.823000", "093334.826000", "093334.828000", "093334.830000", "093334.833000", "093334.835000", "093334.838000", "093334.841000", "093334.844000", "093334.847000", "093334.851000", "093334.854000", "093334.857000", "093334.860000", "093334.863000", "093334.866000", "093334.870000", "093334.873000", "093334.876000", "093414.824000", "093414.827000", "093414.829000", "093414.831000", "093414.834000", "093414.836000", "093414.839000", "093414.842000", "093414.845000", "093414.849000", "093414.852000", "093414.855000", "093414.858000", "093414.861000", "093414.865000", "093414.868000", "093414.871000", "093414.874000", "093414.877000", "093414.881000", "093454.820000", "093454.823000", "093454.825000", "093454.828000", "093454.830000", "093454.832000", "093454.835000", "093454.838000", "093454.841000", "093454.844000", "093454.848000", "093454.851000", "093454.854000", "093454.857000", "093454.860000", "093454.864000", "093454.867000", "093454.870000", "093454.873000", "093454.876000", "093534.819000", "093534.822000", "093534.825000", "093534.827000", "093534.829000", "093534.832000", "093534.843000", "093534.846000", "093534.849000", "093534.852000", "093534.855000", "093534.858000", "093534.861000", "093534.865000", "093534.868000", "093534.877000", "093534.880000", "093534.883000", "093534.886000", "093534.890000", "093614.821000", "093614.824000", "093614.826000", "093614.829000", "093614.832000", "093614.834000", "093614.837000", "093614.840000", "093614.843000", "093614.847000", "093614.850000", "093614.857000", "093614.865000", "093614.868000", "093614.871000", "093614.874000", "093614.877000", "093614.880000", "093614.884000", "093614.887000", "093654.819000", "093654.822000", "093654.825000", "093654.827000", "093654.829000", "093654.832000", "093654.834000", "093654.837000", "093654.840000", "093654.843000", "093654.847000", "093654.850000", "093654.853000", "093654.856000", "093654.859000", "093654.866000", "093654.869000", "093654.873000", "093654.876000", "093654.879000", "093734.820000", "093734.823000", "093734.825000", "093734.828000", "093734.830000", "093734.833000", "093734.835000", "093734.838000", "093734.841000", "093734.844000", "093734.848000", "093734.851000", "093734.854000", "093734.857000", "093734.860000", "093734.863000", "093734.866000", "093734.869000", "093734.872000", "093734.876000", "093814.821000", "093814.855000", "093814.858000", "093814.861000", "093814.864000", "093814.867000", "093814.874000", "093814.878000", "093814.881000", "093814.884000", "093814.887000", "093814.890000", "093814.893000", "093814.896000", "093814.900000", "093814.903000", "093814.906000", "093814.910000", "093814.913000", "093814.916000", "093854.821000", "093854.824000", "093854.826000", "093854.829000", "093854.831000", "093854.834000", "093854.836000", "093854.839000", "093854.843000", "093854.846000", "093854.849000", "093854.852000", "093854.864000", "093854.867000", "093854.870000", "093854.873000", "093854.876000", "093854.879000", "093854.882000", "093854.885000", "093914.820000", "093914.823000", "093914.825000", "093914.827000", "093914.830000", "093914.832000", "093914.835000", "093914.838000", "093914.841000", "093914.844000", "093952.720000", "093952.723000", "093952.725000", "093952.728000", "093952.731000", "093952.733000", "093952.737000", "093952.739000", "093952.742000", "093952.745000", "093952.748000", "093952.753000", "093952.759000", "093952.763000", "093952.766000", "093952.769000", "093952.771000", "093952.775000", "093952.777000"],
      "InstanceCreationTime": ["093254.847000", "093254.851000", "093254.854000", "093254.857000", "093254.860000", "093254.869000", "093254.872000", "093254.875000", "093254.879000", "093254.882000", "093254.885000", "093254.892000", "093254.895000", "093254.903000", "093254.906000", "093254.910000", "093254.913000", "093254.916000", "093254.919000", "093254.923000", "093254.926000", "093254.929000", "093254.932000", "093254.935000", "093254.951000", "093254.954000", "093254.957000", "093254.963000", "093334.820000", "093334.823000", "093334.826000", "093334.828000", "093334.830000", "093334.833000", "093334.835000", "093334.838000", "093334.841000", "093334.844000", "093334.847000", "093334.851000", "093334.854000", "093334.857000", "093334.860000", "093334.863000", "093334.866000", "093334.870000", "093334.873000", "093334.876000", "093414.824000", "093414.827000", "093414.829000", "093414.831000", "093414.834000", "093414.836000", "093414.839000", "093414.842000", "093414.845000", "093414.849000", "093414.852000", "093414.855000", "093414.858000", "093414.861000", "093414.865000", "093414.868000", "093414.871000", "093414.874000", "093414.877000", "093414.881000", "093454.820000", "093454.823000", "093454.825000", "093454.828000", "093454.830000", "093454.832000", "093454.835000", "093454.838000", "093454.841000", "093454.844000", "093454.848000", "093454.851000", "093454.854000", "093454.857000", "093454.860000", "093454.864000", "093454.867000", "093454.870000", "093454.873000", "093454.876000", "093534.819000", "093534.822000", "093534.825000", "093534.827000", "093534.829000", "093534.832000", "093534.843000", "093534.846000", "093534.849000", "093534.852000", "093534.855000", "093534.858000", "093534.861000", "093534.865000", "093534.868000", "093534.877000", "093534.880000", "093534.883000", "093534.886000", "093534.890000", "093614.821000", "093614.824000", "093614.826000", "093614.829000", "093614.832000", "093614.834000", "093614.837000", "093614.840000", "093614.843000", "093614.847000", "093614.850000", "093614.857000", "093614.865000", "093614.868000", "093614.871000", "093614.874000", "093614.877000", "093614.880000", "093614.884000", "093614.887000", "093654.819000", "093654.822000", "093654.825000", "093654.827000", "093654.829000", "093654.832000", "093654.834000", "093654.837000", "093654.840000", "093654.843000", "093654.847000", "093654.850000", "093654.853000", "093654.856000", "093654.859000", "093654.866000", "093654.869000", "093654.873000", "093654.876000", "093654.879000", "093734.820000", "093734.823000", "093734.825000", "093734.828000", "093734.830000", "093734.833000", "093734.835000", "093734.838000", "093734.841000", "093734.844000", "093734.848000", "093734.851000", "093734.854000", "093734.857000", "093734.860000", "093734.863000", "093734.866000", "093734.869000", "093734.872000", "093734.876000", "093814.821000", "093814.855000", "093814.858000", "093814.861000", "093814.864000", "093814.867000", "093814.874000", "093814.878000", "093814.881000", "093814.884000", "093814.887000", "093814.890000", "093814.893000", "093814.896000", "093814.900000", "093814.903000", "093814.906000", "093814.910000", "093814.913000", "093814.916000", "093854.821000", "093854.824000", "093854.826000", "093854.829000", "093854.831000", "093854.834000", "093854.836000", "093854.839000", "093854.843000", "093854.846000", "093854.849000", "093854.852000", "093854.864000", "093854.867000", "093854.870000", "093854.873000", "093854.876000", "093854.879000", "093854.882000", "093854.885000", "093914.820000", "093914.823000", "093914.825000", "093914.827000", "093914.830000", "093914.832000", "093914.835000", "093914.838000", "093914.841000", "093914.844000", "093952.720000", "093952.723000", "093952.725000", "093952.728000", "093952.731000", "093952.733000", "093952.737000", "093952.739000", "093952.742000", "093952.745000", "093952.748000", "093952.753000", "093952.759000", "093952.763000", "093952.766000", "093952.769000", "093952.771000", "093952.775000", "093952.777000"],
      "InstanceNumber": [1, 2, 3, 4, 5, 6, 7, 8, 9, 10, 11, 12, 13, 14, 15, 16, 17, 18, 19, 20, 21, 22, 23, 24, 25, 26, 27, 28, 29, 30, 31, 32, 33, 34, 35, 36, 37, 38, 39, 40, 41, 42, 43, 44, 45, 46, 47, 48, 49, 50, 51, 52, 53, 54, 55, 56, 57, 58, 59, 60, 61, 62, 63, 64, 65, 66, 67, 68, 69, 70, 71, 72, 73, 74, 75, 76, 77, 78, 79, 80, 81, 82, 83, 84, 85, 86, 87, 88, 89, 90, 91, 92, 93, 94, 95, 96, 97, 98, 99, 100, 101, 102, 103, 104, 105, 106, 107, 108, 109, 110, 111, 112, 113, 114, 115, 116, 117, 118, 119, 120, 121, 122, 123, 124, 125, 126, 127, 128, 129, 130, 131, 132, 133, 134, 135, 136, 137, 138, 139, 140, 141, 142, 143, 144, 145, 146, 147, 148, 149, 150, 151, 152, 153, 154, 155, 156, 157, 158, 159, 160, 161, 162, 163, 164, 165, 166, 167, 168, 169, 170, 171, 172, 173, 174, 175, 176, 177, 178, 179, 180, 181, 182, 183, 184, 185, 186, 187, 188, 189, 190, 191, 192, 193, 194, 195, 196, 197, 198, 199, 200, 201, 202, 203, 204, 205, 206, 207, 208, 209, 210, 211, 212, 213, 214, 215, 216, 217, 218, 219, 220, 221, 222, 223, 224, 225, 226, 227, 228, 229, 230, 231, 232, 233, 234, 235, 236, 237],
      "LargestImagePixelValue": [2267, 1947, 1921, 2083, 2483, 2884, 3476, 1991, 2048, 2207, 2429, 2358, 1888, 2095, 2511, 2248, 2086, 2424, 2650, 1909, 2121, 2196, 2603, 1927, 1912, 2222, 2508, 2658, 1950, 1924, 2120, 2281, 2165, 1995, 2146, 2618, 2269, 2205, 2611, 1966, 1926, 2329, 2379, 1894, 1996, 2325, 2489, 1880, 1987, 2278, 2645, 1894, 1910, 2380, 2533, 1892, 2262, 2388, 2769, 2069, 1924, 2005, 2491, 2511, 2412, 2031, 1906, 2255, 2323, 2258, 2078, 1851, 1905, 2415, 2421, 2267, 2041, 2020, 2049, 2468, 2289, 1874, 2003, 2464, 2668, 1876, 2106, 2446, 1874, 2111, 2512, 2189, 2408, 1867, 1900, 2594, 2040, 1896, 2155, 1878, 2373, 2314, 1874, 1857, 2019, 2305, 2574, 3119, 2021, 2203, 2210, 2401, 2406, 2521, 2448, 1929, 1941, 2172, 2354, 2287, 1862, 2079, 2153, 1895, 2104, 2351, 1909, 2203, 2183, 2435, 2405, 3199, 2445, 1952, 1914, 1919, 2136, 2201, 2123, 1846, 2079, 2317, 3153, 3431, 1946, 2127, 2447, 2084, 2572, 2198, 1902, 1950, 2099, 2176, 1871, 2243, 2207, 1885, 2034, 2379, 3572, 2051, 2948, 2401, 2318, 2020, 1927, 2141, 2099, 2235, 2020, 2264, 1849, 2015, 1893, 2095, 2473, 2185, 2399, 2124, 1951, 2386, 3585, 2563, 2419, 2727, 1931, 1870, 2124, 2377, 2279, 1859, 2295, 2109, 2319, 2065, 1862, 1959, 1940, 1994, 2481, 2567, 3292, 1981, 3509, 2503, 2257, 2133, 1851, 2133, 1990, 2112, 2222, 2393, 2390, 2088, 1912, 2223, 2468, 2930, 2679, 1940, 2088, 2357, 2776, 1852, 2051, 2174, 2184, 2129, 2090, 1807, 1970, 2190, 2034, 2181, 2633],
      "WindowCenter": [734.0, 734.0, 733.0, 734.0, 735.0, 736.0, 735.0, 733.0, 733.0, 733.0, 733.0, 733.0, 733.0, 734.0, 735.0, 734.0, 734.0, 734.0, 734.0, 732.0, 733.0, 733.0, 734.0, 733.0, 734.0, 735.0, 734.0, 734.0, 733.0, 732.0, 733.0, 734.0, 734.0, 733.0, 734.0, 735.0, 734.0, 734.0, 734.0, 733.0, 733.0, 733.0, 733.0, 733.0, 734.0, 735.0, 735.0, 733.0, 734.0, 735.0, 735.0, 733.0, 734.0, 734.0, 735.0, 734.0, 735.0, 734.0, 734.0, 733.0, 733.0, 734.0, 735.0, 734.0, 733.0, 733.0, 733.0, 734.0, 733.0, 733.0, 733.0, 734.0, 734.0, 735.0, 734.0, 733.0, 733.0, 734.0, 734.0, 734.0, 734.0, 733.0, 733.0, 734.0, 734.0, 732.0, 733.0, 735.0, 733.0, 733.0, 733.0, 732.0, 733.0, 732.0, 733.0, 735.0, 733.0, 732.0, 733.0, 733.0, 734.0, 734.0, 733.0, 734.0, 735.0, 736.0, 737.0, 736.0, 735.0, 734.0, 734.0, 734.0, 733.0, 734.0, 733.0, 733.0, 733.0, 733.0, 733.0, 733.0, 733.0, 733.0, 733.0, 733.0, 735.0, 736.0, 735.0, 734.0, 734.0, 734.0, 735.0, 736.0, 734.0, 733.0, 732.0, 733.0, 734.0, 734.0, 734.0, 735.0, 735.0, 736.0, 736.0, 735.0, 732.0, 732.0, 732.0, 732.0, 733.0, 733.0, 732.0, 733.0, 733.0, 733.0, 734.0, 735.0, 735.0, 735.0, 735.0, 735.0, 736.0, 734.0, 734.0, 732.0, 733.0, 732.0, 733.0, 733.0, 732.0, 733.0, 733.0, 734.0, 733.0, 734.0, 734.0, 735.0, 736.0, 735.0, 735.0, 735.0, 735.0, 735.0, 735.0, 733.0, 733.0, 733.0, 732.0, 732.0, 733.0, 734.0, 733.0, 732.0, 734.0, 734.0, 734.0, 733.0, 733.0, 734.0, 735.0, 735.0, 735.0, 736.0, 736.0, 734.0, 735.0, 733.0, 732.0, 732.0, 732.0, 734.0, 734.0, 734.0, 735.0, 736.0, 735.0, 734.0, 734.0, 735.0, 735.0, 735.0, 734.0, 733.0, 732.0, 734.0, 734.0, 732.0, 732.0, 732.0, 733.0, 732.0, 733.0, 733.0, 734.0, 735.0, 735.0, 736.0, 737.0],
      "WindowWidth": [1638.0, 1636.0, 1632.0, 1637.0, 1642.0, 1646.0, 1644.0, 1632.0, 1632.0, 1633.0, 1634.0, 1634.0, 1632.0, 1637.0, 1640.0, 1638.0, 1637.0, 1638.0, 1638.0, 1631.0, 1634.0, 1635.0, 1638.0, 1634.0, 1636.0, 1639.0, 1639.0, 1639.0, 1632.0, 1631.0, 1633.0, 1636.0, 1636.0, 1634.0, 1636.0, 1641.0, 1638.0, 1635.0, 1637.0, 1632.0, 1632.0, 1635.0, 1635.0, 1633.0, 1635.0, 1639.0, 1640.0, 1633.0, 1636.0, 1640.0, 1641.0, 1633.0, 1635.0, 1638.0, 1640.0, 1636.0, 1639.0, 1639.0, 1639.0, 1632.0, 1633.0, 1637.0, 1639.0, 1639.0, 1635.0, 1632.0, 1631.0, 1636.0, 1635.0, 1634.0, 1634.0, 1635.0, 1637.0, 1640.0, 1638.0, 1634.0, 1634.0, 1636.0, 1636.0, 1637.0, 1636.0, 1632.0, 1634.0, 1638.0, 1639.0, 1631.0, 1635.0, 1641.0, 1633.0, 1634.0, 1634.0, 1631.0, 1633.0, 1629.0, 1632.0, 1640.0, 1634.0, 1630.0, 1632.0, 1632.0, 1638.0, 1637.0, 1632.0, 1636.0, 1641.0, 1643.0, 1647.0, 1647.0, 1638.0, 1637.0, 1636.0, 1636.0, 1635.0, 1637.0, 1635.0, 1631.0, 1631.0, 1635.0, 1634.0, 1635.0, 1634.0, 1634.0, 1633.0, 1632.0, 1638.0, 1644.0, 1638.0, 1637.0, 1636.0, 1639.0, 1641.0, 1645.0, 1636.0, 1631.0, 1630.0, 1634.0, 1637.0, 1637.0, 1637.0, 1638.0, 1641.0, 1642.0, 1644.0, 1643.0, 1630.0, 1630.0, 1632.0, 1630.0, 1635.0, 1633.0, 1630.0, 1633.0, 1633.0, 1634.0, 1635.0, 1639.0, 1639.0, 1638.0, 1638.0, 1642.0, 1647.0, 1635.0, 1638.0, 1632.0, 1632.0, 1630.0, 1632.0, 1633.0, 1631.0, 1632.0, 1634.0, 1638.0, 1633.0, 1635.0, 1636.0, 1641.0, 1645.0, 1639.0, 1640.0, 1639.0, 1640.0, 1641.0, 1643.0, 1634.0, 1632.0, 1634.0, 1630.0, 1631.0, 1633.0, 1637.0, 1633.0, 1629.0, 1637.0, 1637.0, 1636.0, 1632.0, 1632.0, 1637.0, 1640.0, 1639.0, 1641.0, 1645.0, 1647.0, 1636.0, 1642.0, 1634.0, 1629.0, 1630.0, 1631.0, 1638.0, 1635.0, 1637.0, 1640.0, 1642.0, 1641.0, 1638.0, 1636.0, 1640.0, 1640.0, 1643.0, 1638.0, 1631.0, 1631.0, 1635.0, 1638.0, 1629.0, 1629.0, 1631.0, 1632.0, 1630.0, 1634.0, 1633.0, 1636.0, 1638.0, 1639.0, 1643.0, 1649.0]
    },
    "slices": {}
  }
}