{
  "AcquisitionMatrixPE": 70,
  "AcquisitionNumber": 1,
  "AcquisitionTime": "09:49:54.365000",
  "BandwidthPerPixelPhaseEncode": 38.873,
  "BaseResolution": 70,
  "BodyPartExamined": "HEAD",
  "ConsistencyInfo": "N4_VE11B_LATEST_20150530",
  "ConversionSoftware": "dcm2niix",
  "ConversionSoftwareVersion": "v1.0.20190410  GCC6.3.0",
  "DerivedVendorReportedEchoSpacing": 0.000489996,
  "DeviceSerialNumber": "66088",
  "DwellTime": 2.9e-06,
  "EchoTime": 0.03,
  "EchoTrainLength": 53,
  "EffectiveEchoSpacing": 0.000367497,
  "FlipAngle": 90,
  "ImageOrientationPatientDICOM": [0.99903, 0.0204486, 0.0389942, -0.0017436, 0.903294, -0.429018],
  "ImageType": [
    "ORIGINAL",
    "PRIMARY",
    "M",
    "ND",
    "NORM",
    "MOSAIC"
],
  "ImagingFrequency": 123.191,
  "InPlanePhaseEncodingDirectionDICOM": "COL",
  "InstitutionAddress": "Street_StreetNo_City_District_IR_ZIP",
  "InstitutionName": "NBML",
  "InstitutionalDepartmentName": "Department",
  "MRAcquisitionType": "2D",
  "MagneticFieldStrength": 3,
  "Manufacturer": "Siemens",
  "ManufacturersModelName": "Prisma",
  "Modality": "MR",
  "ParallelReductionFactorInPlane": 2,
  "PartialFourier": 1,
  "PatientPosition": "HFS",
  "PercentPhaseFOV": 100,
  "PhaseEncodingDirection": "j-",
  "PhaseEncodingSteps": 105,
  "PhaseOversampling": 0.5,
  "PhaseResolution": 1,
  "PixelBandwidth": 2465,
  "ProcedureStepDescription": "NBML_Project_P-96169-Ebrahiminiya",
  "ProtocolName": "ep2d_p2_Task_3.5_measurment:237",
  "PulseSequenceDetails": "%SiemensSeq%_ep2d_pace",
  "ReceiveCoilActiveElements": "HC1-7;NC1",
  "ReceiveCoilName": "HeadNeck_64",
  "ReconMatrixPE": 70,
  "RefLinesPE": 24,
  "RepetitionTime": 2,
  "SAR": 0.0942223,
  "ScanOptions": "FS",
  "ScanningSequence": "EP",
  "SequenceName": "_epfid2d1_70",
  "SequenceVariant": "SK_OSP",
  "SeriesDescription": "ep2d_p2_Task_3.5_measurment:237",
  "SeriesNumber": 7,
  "ShimSetting": [2617, -4440, -3194, 457, 23, 103, -160, 62],
  "SliceThickness": 3.5,
  "SliceTiming": [0.99, 0, 1.0475, 0.0575, 1.105, 0.115, 1.1625, 0.175, 1.2225, 0.2325, 1.28, 0.29, 1.3375, 0.3475, 1.3975, 0.4075, 1.455, 0.465, 1.5125, 0.5225, 1.5725, 0.5825, 1.63, 0.64, 1.6875, 0.6975, 1.745, 0.755, 1.805, 0.815, 1.8625, 0.8725, 1.92, 0.93],
  "SoftwareVersions": "syngo_MR_E11",
  "SpacingBetweenSlices": 3.85,
  "StationName": "AWP66088",
  "TaskName": "categorySelectivity",
  "TotalReadoutTime": 0.0253573,
  "TxRefAmp": 274.531,
  "dcmmeta_affine": [
    [-3.539421319961548, -0.006177311297506094, 0.1693846434354782, 125.55367279052734],
    [-0.07244646549224854, 3.200242519378662, -1.6498558521270752, -93.78807830810547],
    [0.13815072178840637, 1.5199496746063232, 3.474447250366211, -93.92389678955078],
    [0.0, 0.0, 0.0, 1.0]
],
  "dcmmeta_reorient_transform": [
    [0.0, -1.0, 0.0, 69.0],
    [1.0, 0.0, 0.0, 0.0],
    [0.0, 0.0, 1.0, 0.0],
    [0.0, 0.0, 0.0, 1.0]
],
  "dcmmeta_shape": [70, 70, 34, 237],
  "dcmmeta_slice_dim": 2,
  "dcmmeta_version": 0.6,
  "global": {
    "const": {
      "AccessionNumber": "M.BRZ",
      "AcquisitionMatrix": [70, 0, 0, 70],
      "AngioFlag": "N",
      "BitsAllocated": 16,
      "BitsStored": 12,
      "BodyPartExamined": "HEAD",
      "Columns": 420,
      "EchoNumbers": 1,
      "EchoTime": 30.0,
      "EchoTrainLength": 53,
      "FlipAngle": 90.0,
      "HighBit": 11,
      "ImageOrientationPatient": [0.99903018505438, 0.02044859874886, 0.0389941554522, -0.0017435958783, 0.90329423477204, -0.4290180477568],
      "ImagePositionPatient": [-743.44512552016, -699.74921436458, 252.76744638025],
      "ImageType": [
        "ORIGINAL",
        "PRIMARY",
        "M",
        "ND",
        "NORM",
        "MOSAIC"
],
      "ImagedNucleus": "1H",
      "ImagingFrequency": 123.19111,
      "InPlanePhaseEncodingDirection": "COL",
      "MRAcquisitionType": "2D",
      "MagneticFieldStrength": 3.0,
      "Manufacturer": "SIEMENS",
      "ManufacturerModelName": "Prisma",
      "Modality": "MR",
      "NumberOfAverages": 1.0,
      "NumberOfPhaseEncodingSteps": 105,
      "PercentPhaseFieldOfView": 100.0,
      "PercentSampling": 100.0,
      "PerformedProcedureStepStartTime": "085708.053000",
      "PhotometricInterpretation": "MONOCHROME2",
      "PixelBandwidth": 2465.0,
      "PixelRepresentation": 0,
      "PixelSpacing": [3.542857170105, 3.542857170105],
      "ProtocolName": "ep2d_p2_Task_3.5_measurment:237",
      "RepetitionTime": 2000.0,
      "Rows": 420,
      "SAR": 0.09422229662693,
      "SamplesPerPixel": 1,
      "ScanOptions": "FS",
      "ScanningSequence": "EP",
      "SequenceName": "*epfid2d1_70",
      "SequenceVariant": [
        "SK",
        "OSP"
],
      "SeriesDescription": "ep2d_p2_Task_3.5_measurment:237",
      "SeriesNumber": 7,
      "SeriesTime": "094957.017000",
      "SliceLocation": -39.046742777036,
      "SliceThickness": 3.5,
      "SmallestImagePixelValue": 0,
      "SoftwareVersions": "syngo MR E11",
      "SpacingBetweenSlices": 3.8499999329472,
      "SpecificCharacterSet": "ISO_IR 100",
      "StudyID": "1",
      "StudyTime": "085707.911000",
      "TransmitCoilName": "Body",
      "VariableFlipAngleFlag": "N",
      "WindowCenterWidthExplanation": "Algo1",
      "dBdt": 0.0},
    "slices": {}
  },
  "time": {
    "samples": {
      "AcquisitionNumber": [1, 2, 3, 4, 5, 6, 7, 8, 9, 10, 11, 12, 13, 14, 15, 16, 17, 18, 19, 20, 21, 22, 23, 24, 25, 26, 27, 28, 29, 30, 31, 32, 33, 34, 35, 36, 37, 38, 39, 40, 41, 42, 43, 44, 45, 46, 47, 48, 49, 50, 51, 52, 53, 54, 55, 56, 57, 58, 59, 60, 61, 62, 63, 64, 65, 66, 67, 68, 69, 70, 71, 72, 73, 74, 75, 76, 77, 78, 79, 80, 81, 82, 83, 84, 85, 86, 87, 88, 89, 90, 91, 92, 93, 94, 95, 96, 97, 98, 99, 100, 101, 102, 103, 104, 105, 106, 107, 108, 109, 110, 111, 112, 113, 114, 115, 116, 117, 118, 119, 120, 121, 122, 123, 124, 125, 126, 127, 128, 129, 130, 131, 132, 133, 134, 135, 136, 137, 138, 139, 140, 141, 142, 143, 144, 145, 146, 147, 148, 149, 150, 151, 152, 153, 154, 155, 156, 157, 158, 159, 160, 161, 162, 163, 164, 165, 166, 167, 168, 169, 170, 171, 172, 173, 174, 175, 176, 177, 178, 179, 180, 181, 182, 183, 184, 185, 186, 187, 188, 189, 190, 191, 192, 193, 194, 195, 196, 197, 198, 199, 200, 201, 202, 203, 204, 205, 206, 207, 208, 209, 210, 211, 212, 213, 214, 215, 216, 217, 218, 219, 220, 221, 222, 223, 224, 225, 226, 227, 228, 229, 230, 231, 232, 233, 234, 235, 236, 237],
      "AcquisitionTime": ["094954.365000", "094956.365000", "094958.365000", "095000.365000", "095002.365000", "095004.365000", "095006.365000", "095008.365000", "095010.365000", "095012.365000", "095014.365000", "095016.365000", "095018.365000", "095020.365000", "095022.365000", "095024.365000", "095026.365000", "095028.365000", "095030.365000", "095032.365000", "095034.365000", "095036.365000", "095038.365000", "095040.365000", "095042.365000", "095044.365000", "095046.365000", "095048.365000", "095050.365000", "095052.365000", "095054.365000", "095056.365000", "095058.365000", "095100.365000", "095102.365000", "095104.365000", "095106.365000", "095108.365000", "095110.365000", "095112.365000", "095114.365000", "095116.365000", "095118.365000", "095120.365000", "095122.365000", "095124.365000", "095126.365000", "095128.365000", "095130.365000", "095132.365000", "095134.365000", "095136.365000", "095138.365000", "095140.365000", "095142.365000", "095144.365000", "095146.365000", "095148.365000", "095150.365000", "095152.365000", "095154.365000", "095156.365000", "095158.365000", "095200.365000", "095202.365000", "095204.365000", "095206.365000", "095208.365000", "095210.365000", "095212.365000", "095214.365000", "095216.365000", "095218.365000", "095220.365000", "095222.365000", "095224.365000", "095226.365000", "095228.365000", "095230.365000", "095232.365000", "095234.365000", "095236.365000", "095238.365000", "095240.365000", "095242.365000", "095244.365000", "095246.365000", "095248.365000", "095250.365000", "095252.365000", "095254.365000", "095256.365000", "095258.365000", "095300.365000", "095302.365000", "095304.365000", "095306.365000", "095308.365000", "095310.365000", "095312.365000", "095314.365000", "095316.365000", "095318.365000", "095320.365000", "095322.365000", "095324.365000", "095326.365000", "095328.365000", "095330.365000", "095332.365000", "095334.365000", "095336.365000", "095338.365000", "095340.365000", "095342.365000", "095344.365000", "095346.365000", "095348.365000", "095350.365000", "095352.365000", "095354.365000", "095356.365000", "095358.365000", "095400.365000", "095402.365000", "095404.365000", "095406.365000", "095408.365000", "095410.365000", "095412.365000", "095414.365000", "095416.365000", "095418.365000", "095420.365000", "095422.365000", "095424.365000", "095426.365000", "095428.365000", "095430.365000", "095432.365000", "095434.365000", "095436.365000", "095438.365000", "095440.365000", "095442.365000", "095444.365000", "095446.365000", "095448.365000", "095450.365000", "095452.365000", "095454.365000", "095456.365000", "095458.365000", "095500.365000", "095502.365000", "095504.365000", "095506.365000", "095508.365000", "095510.365000", "095512.365000", "095514.365000", "095516.365000", "095518.365000", "095520.365000", "095522.365000", "095524.365000", "095526.365000", "095528.365000", "095530.365000", "095532.365000", "095534.365000", "095536.365000", "095538.365000", "095540.365000", "095542.365000", "095544.365000", "095546.365000", "095548.365000", "095550.365000", "095552.365000", "095554.365000", "095556.365000", "095558.365000", "095600.365000", "095602.365000", "095604.365000", "095606.365000", "095608.365000", "095610.365000", "095612.365000", "095614.365000", "095616.365000", "095618.365000", "095620.365000", "095622.365000", "095624.365000", "095626.365000", "095628.365000", "095630.365000", "095632.365000", "095634.365000", "095636.365000", "095638.365000", "095640.365000", "095642.365000", "095644.365000", "095646.365000", "095648.365000", "095650.365000", "095652.365000", "095654.365000", "095656.365000", "095658.365000", "095700.365000", "095702.365000", "095704.365000", "095706.365000", "095708.365000", "095710.365000", "095712.365000", "095714.365000", "095716.365000", "095718.365000", "095720.365000", "095722.365000", "095724.365000", "095726.365000", "095728.365000", "095730.365000", "095732.365000", "095734.365000", "095736.365000", "095738.365000", "095740.365000", "095742.365000", "095744.365000", "095746.365000"],
      "ContentTime": ["094957.021000", "095037.016000", "095037.019000", "095037.022000", "095037.025000", "095037.028000", "095037.031000", "095037.034000", "095037.037000", "095037.040000", "095037.043000", "095037.047000", "095037.050000", "095037.053000", "095037.057000", "095037.060000", "095037.063000", "095037.066000", "095037.069000", "095037.072000", "095037.076000", "095117.016000", "095117.019000", "095117.023000", "095117.026000", "095117.029000", "095117.033000", "095117.036000", "095117.039000", "095117.042000", "095117.046000", "095117.049000", "095117.052000", "095117.055000", "095117.059000", "095117.062000", "095117.065000", "095117.068000", "095117.071000", "095117.075000", "095117.078000", "095157.016000", "095157.019000", "095157.021000", "095157.023000", "095157.026000", "095157.028000", "095157.031000", "095157.033000", "095157.035000", "095157.038000", "095157.041000", "095157.043000", "095157.053000", "095157.056000", "095157.058000", "095157.061000", "095157.063000", "095157.066000", "095157.068000", "095157.071000", "095237.016000", "095237.019000", "095237.022000", "095237.025000", "095237.029000", "095237.032000", "095237.035000", "095237.038000", "095237.041000", "095237.045000", "095237.048000", "095237.051000", "095237.055000", "095237.059000", "095237.063000", "095237.066000", "095237.070000", "095237.073000", "095237.077000", "095237.080000", "095317.017000", "095317.021000", "095317.024000", "095317.027000", "095317.039000", "095317.042000", "095317.045000", "095317.049000", "095317.052000", "095317.055000", "095317.058000", "095317.061000", "095317.064000", "095317.072000", "095317.075000", "095317.079000", "095317.082000", "095317.085000", "095317.088000", "095317.092000", "095357.017000", "095357.021000", "095357.024000", "095357.026000", "095357.029000", "095357.032000", "095357.034000", "095357.037000", "095357.039000", "095357.042000", "095357.044000", "095357.047000", "095357.049000", "095357.052000", "095357.055000", "095357.058000", "095357.077000", "095357.080000", "095357.083000", "095357.085000", "095437.016000", "095437.019000", "095437.022000", "095437.025000", "095437.029000", "095437.032000", "095437.035000", "095437.038000", "095437.041000", "095437.045000", "095437.048000", "095437.051000", "095437.054000", "095437.057000", "095437.060000", "095437.063000", "095437.067000", "095437.070000", "095437.073000", "095437.076000", "095517.017000", "095517.021000", "095517.024000", "095517.027000", "095517.030000", "095517.034000", "095517.037000", "095517.041000", "095517.044000", "095517.048000", "095517.051000", "095517.054000", "095517.057000", "095517.061000", "095517.064000", "095517.067000", "095517.070000", "095517.073000", "095517.076000", "095517.080000", "095557.015000", "095557.019000", "095557.021000", "095557.023000", "095557.026000", "095557.029000", "095557.031000", "095557.034000", "095557.036000", "095557.039000", "095557.041000", "095557.044000", "095557.046000", "095557.049000", "095557.051000", "095557.054000", "095557.056000", "095557.059000", "095557.071000", "095557.073000", "095637.016000", "095637.019000", "095637.023000", "095637.026000", "095637.029000", "095637.032000", "095637.035000", "095637.038000", "095637.042000", "095637.045000", "095637.051000", "095637.055000", "095637.058000", "095637.064000", "095637.067000", "095637.070000", "095637.074000", "095637.077000", "095637.080000", "095637.083000", "095717.016000", "095717.019000", "095717.022000", "095717.025000", "095717.028000", "095717.032000", "095717.035000", "095717.038000", "095717.041000", "095717.044000", "095717.048000", "095717.051000", "095717.054000", "095717.057000", "095717.061000", "095717.064000", "095717.067000", "095717.070000", "095717.073000", "095717.076000", "095747.795000", "095747.799000", "095747.802000", "095747.805000", "095747.808000", "095747.811000", "095747.815000", "095747.818000", "095747.821000", "095747.824000", "095747.828000", "095747.832000", "095747.840000", "095747.844000", "095747.846000", "095747.849000"],
      "InstanceCreationTime": ["094957.021000", "095037.016000", "095037.019000", "095037.022000", "095037.025000", "095037.028000", "095037.031000", "095037.034000", "095037.037000", "095037.040000", "095037.043000", "095037.047000", "095037.050000", "095037.053000", "095037.057000", "095037.060000", "095037.063000", "095037.066000", "095037.069000", "095037.072000", "095037.076000", "095117.016000", "095117.019000", "095117.023000", "095117.026000", "095117.029000", "095117.033000", "095117.036000", "095117.039000", "095117.042000", "095117.046000", "095117.049000", "095117.052000", "095117.055000", "095117.059000", "095117.062000", "095117.065000", "095117.068000", "095117.071000", "095117.075000", "095117.078000", "095157.016000", "095157.019000", "095157.021000", "095157.023000", "095157.026000", "095157.028000", "095157.031000", "095157.033000", "095157.035000", "095157.038000", "095157.041000", "095157.043000", "095157.053000", "095157.056000", "095157.058000", "095157.061000", "095157.063000", "095157.066000", "095157.068000", "095157.071000", "095237.016000", "095237.019000", "095237.022000", "095237.025000", "095237.029000", "095237.032000", "095237.035000", "095237.038000", "095237.041000", "095237.045000", "095237.048000", "095237.051000", "095237.055000", "095237.059000", "095237.063000", "095237.066000", "095237.070000", "095237.073000", "095237.077000", "095237.080000", "095317.017000", "095317.021000", "095317.024000", "095317.027000", "095317.039000", "095317.042000", "095317.045000", "095317.049000", "095317.052000", "095317.055000", "095317.058000", "095317.061000", "095317.064000", "095317.072000", "095317.075000", "095317.079000", "095317.082000", "095317.085000", "095317.088000", "095317.092000", "095357.017000", "095357.021000", "095357.024000", "095357.026000", "095357.029000", "095357.032000", "095357.034000", "095357.037000", "095357.039000", "095357.042000", "095357.044000", "095357.047000", "095357.049000", "095357.052000", "095357.055000", "095357.058000", "095357.077000", "095357.080000", "095357.083000", "095357.085000", "095437.016000", "095437.019000", "095437.022000", "095437.025000", "095437.029000", "095437.032000", "095437.035000", "095437.038000", "095437.041000", "095437.045000", "095437.048000", "095437.051000", "095437.054000", "095437.057000", "095437.060000", "095437.063000", "095437.067000", "095437.070000", "095437.073000", "095437.076000", "095517.017000", "095517.021000", "095517.024000", "095517.027000", "095517.030000", "095517.034000", "095517.037000", "095517.041000", "095517.044000", "095517.048000", "095517.051000", "095517.054000", "095517.057000", "095517.061000", "095517.064000", "095517.067000", "095517.070000", "095517.073000", "095517.076000", "095517.080000", "095557.015000", "095557.019000", "095557.021000", "095557.023000", "095557.026000", "095557.029000", "095557.031000", "095557.034000", "095557.036000", "095557.039000", "095557.041000", "095557.044000", "095557.046000", "095557.049000", "095557.051000", "095557.054000", "095557.056000", "095557.059000", "095557.071000", "095557.073000", "095637.016000", "095637.019000", "095637.023000", "095637.026000", "095637.029000", "095637.032000", "095637.035000", "095637.038000", "095637.042000", "095637.045000", "095637.051000", "095637.055000", "095637.058000", "095637.064000", "095637.067000", "095637.070000", "095637.074000", "095637.077000", "095637.080000", "095637.083000", "095717.016000", "095717.019000", "095717.022000", "095717.025000", "095717.028000", "095717.032000", "095717.035000", "095717.038000", "095717.041000", "095717.044000", "095717.048000", "095717.051000", "095717.054000", "095717.057000", "095717.061000", "095717.064000", "095717.067000", "095717.070000", "095717.073000", "095717.076000", "095747.795000", "095747.799000", "095747.802000", "095747.805000", "095747.808000", "095747.811000", "095747.815000", "095747.818000", "095747.821000", "095747.824000", "095747.828000", "095747.832000", "095747.840000", "095747.844000", "095747.846000", "095747.849000"],
      "InstanceNumber": [1, 2, 3, 4, 5, 6, 7, 8, 9, 10, 11, 12, 13, 14, 15, 16, 17, 18, 19, 20, 21, 22, 23, 24, 25, 26, 27, 28, 29, 30, 31, 32, 33, 34, 35, 36, 37, 38, 39, 40, 41, 42, 43, 44, 45, 46, 47, 48, 49, 50, 51, 52, 53, 54, 55, 56, 57, 58, 59, 60, 61, 62, 63, 64, 65, 66, 67, 68, 69, 70, 71, 72, 73, 74, 75, 76, 77, 78, 79, 80, 81, 82, 83, 84, 85, 86, 87, 88, 89, 90, 91, 92, 93, 94, 95, 96, 97, 98, 99, 100, 101, 102, 103, 104, 105, 106, 107, 108, 109, 110, 111, 112, 113, 114, 115, 116, 117, 118, 119, 120, 121, 122, 123, 124, 125, 126, 127, 128, 129, 130, 131, 132, 133, 134, 135, 136, 137, 138, 139, 140, 141, 142, 143, 144, 145, 146, 147, 148, 149, 150, 151, 152, 153, 154, 155, 156, 157, 158, 159, 160, 161, 162, 163, 164, 165, 166, 167, 168, 169, 170, 171, 172, 173, 174, 175, 176, 177, 178, 179, 180, 181, 182, 183, 184, 185, 186, 187, 188, 189, 190, 191, 192, 193, 194, 195, 196, 197, 198, 199, 200, 201, 202, 203, 204, 205, 206, 207, 208, 209, 210, 211, 212, 213, 214, 215, 216, 217, 218, 219, 220, 221, 222, 223, 224, 225, 226, 227, 228, 229, 230, 231, 232, 233, 234, 235, 236, 237],
      "LargestImagePixelValue": [1981, 2034, 1992, 2076, 1977, 2431, 1998, 1919, 2118, 1946, 2070, 2014, 1908, 1889, 2025, 2251, 2227, 2645, 2015, 2172, 1915, 2007, 2151, 2156, 1918, 2018, 1923, 2251, 2047, 2689, 1906, 1913, 1903, 2825, 2502, 1898, 1983, 1977, 2115, 2283, 2048, 1935, 1919, 2013, 2114, 2210, 1922, 1921, 2024, 2119, 2080, 2109, 2777, 1921, 1920, 1917, 2054, 2256, 2014, 1885, 2178, 2148, 2108, 2321, 1935, 1913, 2262, 2267, 1975, 2000, 2253, 3302, 1886, 1911, 2060, 2003, 2222, 1964, 1849, 1938, 2191, 2275, 2748, 1995, 1933, 2209, 2128, 2053, 2111, 1898, 1895, 2018, 2409, 1908, 1902, 2033, 1970, 2259, 2224, 2014, 2040, 2251, 2030, 2044, 1852, 1939, 2249, 2340, 2112, 1887, 1971, 2058, 2323, 1985, 1952, 1925, 2240, 2394, 1867, 1947, 1911, 2444, 1922, 1936, 2176, 2488, 2173, 1971, 2440, 1926, 1957, 1932, 2430, 1896, 1926, 1930, 2271, 2172, 1921, 1960, 2120, 2285, 1874, 1983, 1964, 2197, 2104, 1923, 1947, 1957, 2396, 2201, 1899, 1927, 2356, 1974, 1910, 2372, 1957, 1983, 1953, 2435, 2061, 2091, 2124, 2169, 2053, 1932, 2279, 2643, 1883, 2009, 2249, 2448, 1958, 2186, 2275, 1874, 1918, 2480, 1949, 1924, 2186, 2622, 1890, 1961, 1980, 2185, 2282, 2012, 1903, 1920, 2328, 2084, 1918, 1931, 2043, 2320, 2170, 2622, 1909, 1913, 2023, 2159, 2172, 2095, 2063, 1952, 2050, 1984, 1911, 1939, 2047, 2847, 1891, 1923, 2198, 3210, 1891, 1931, 2552, 1974, 1974, 2050, 1923, 1952, 2253, 2163, 2100, 2084, 1957, 2533, 2241, 1915, 1881, 1920, 1910],
      "WindowCenter": [736.0, 735.0, 735.0, 734.0, 734.0, 735.0, 734.0, 734.0, 735.0, 734.0, 734.0, 734.0, 734.0, 734.0, 735.0, 735.0, 735.0, 736.0, 734.0, 734.0, 733.0, 735.0, 735.0, 735.0, 735.0, 735.0, 735.0, 735.0, 735.0, 736.0, 734.0, 734.0, 734.0, 736.0, 735.0, 733.0, 733.0, 734.0, 734.0, 734.0, 734.0, 734.0, 734.0, 734.0, 735.0, 735.0, 735.0, 735.0, 735.0, 735.0, 735.0, 735.0, 736.0, 734.0, 734.0, 734.0, 735.0, 735.0, 734.0, 734.0, 736.0, 735.0, 735.0, 735.0, 735.0, 735.0, 736.0, 735.0, 734.0, 734.0, 735.0, 736.0, 733.0, 733.0, 734.0, 735.0, 735.0, 735.0, 735.0, 736.0, 737.0, 736.0, 736.0, 735.0, 735.0, 735.0, 734.0, 734.0, 734.0, 734.0, 735.0, 735.0, 736.0, 735.0, 735.0, 735.0, 735.0, 736.0, 737.0, 735.0, 735.0, 735.0, 734.0, 735.0, 735.0, 735.0, 735.0, 735.0, 734.0, 735.0, 735.0, 736.0, 735.0, 735.0, 735.0, 735.0, 735.0, 735.0, 734.0, 734.0, 734.0, 736.0, 734.0, 735.0, 737.0, 736.0, 735.0, 734.0, 734.0, 733.0, 733.0, 734.0, 735.0, 735.0, 735.0, 735.0, 736.0, 736.0, 735.0, 735.0, 736.0, 736.0, 736.0, 736.0, 736.0, 736.0, 736.0, 736.0, 735.0, 735.0, 736.0, 736.0, 734.0, 734.0, 735.0, 735.0, 735.0, 735.0, 734.0, 735.0, 735.0, 736.0, 735.0, 735.0, 735.0, 735.0, 736.0, 736.0, 736.0, 736.0, 734.0, 735.0, 736.0, 736.0, 735.0, 736.0, 736.0, 735.0, 736.0, 736.0, 735.0, 735.0, 735.0, 736.0, 734.0, 734.0, 734.0, 735.0, 735.0, 735.0, 735.0, 735.0, 737.0, 736.0, 735.0, 735.0, 735.0, 735.0, 735.0, 736.0, 735.0, 735.0, 736.0, 735.0, 735.0, 735.0, 736.0, 736.0, 736.0, 736.0, 736.0, 736.0, 737.0, 738.0, 736.0, 736.0, 736.0, 737.0, 734.0, 734.0, 736.0, 734.0, 734.0, 735.0, 734.0, 735.0, 736.0, 735.0, 735.0, 735.0, 735.0, 736.0, 735.0, 733.0, 735.0, 736.0, 736.0],
      "WindowWidth": [1643.0, 1639.0, 1638.0, 1638.0, 1637.0, 1643.0, 1638.0, 1637.0, 1638.0, 1636.0, 1636.0, 1637.0, 1638.0, 1637.0, 1639.0, 1640.0, 1640.0, 1643.0, 1635.0, 1636.0, 1634.0, 1638.0, 1640.0, 1639.0, 1638.0, 1639.0, 1640.0, 1642.0, 1638.0, 1644.0, 1637.0, 1637.0, 1637.0, 1646.0, 1641.0, 1632.0, 1634.0, 1635.0, 1637.0, 1639.0, 1637.0, 1635.0, 1635.0, 1636.0, 1640.0, 1641.0, 1640.0, 1640.0, 1640.0, 1639.0, 1640.0, 1641.0, 1646.0, 1637.0, 1635.0, 1636.0, 1640.0, 1641.0, 1637.0, 1636.0, 1642.0, 1641.0, 1640.0, 1641.0, 1638.0, 1639.0, 1642.0, 1642.0, 1638.0, 1637.0, 1639.0, 1645.0, 1634.0, 1633.0, 1637.0, 1638.0, 1639.0, 1639.0, 1638.0, 1643.0, 1645.0, 1644.0, 1645.0, 1639.0, 1639.0, 1641.0, 1637.0, 1637.0, 1638.0, 1638.0, 1639.0, 1640.0, 1643.0, 1638.0, 1638.0, 1638.0, 1639.0, 1645.0, 1646.0, 1641.0, 1638.0, 1639.0, 1636.0, 1638.0, 1637.0, 1639.0, 1642.0, 1641.0, 1638.0, 1638.0, 1640.0, 1641.0, 1641.0, 1638.0, 1638.0, 1638.0, 1640.0, 1640.0, 1634.0, 1635.0, 1636.0, 1643.0, 1638.0, 1639.0, 1645.0, 1645.0, 1640.0, 1636.0, 1638.0, 1633.0, 1634.0, 1636.0, 1641.0, 1638.0, 1638.0, 1639.0, 1644.0, 1642.0, 1639.0, 1640.0, 1643.0, 1644.0, 1641.0, 1642.0, 1641.0, 1642.0, 1642.0, 1643.0, 1640.0, 1641.0, 1643.0, 1644.0, 1637.0, 1636.0, 1641.0, 1639.0, 1639.0, 1641.0, 1638.0, 1638.0, 1640.0, 1644.0, 1641.0, 1641.0, 1639.0, 1640.0, 1642.0, 1641.0, 1642.0, 1645.0, 1636.0, 1639.0, 1643.0, 1644.0, 1638.0, 1642.0, 1643.0, 1638.0, 1640.0, 1644.0, 1639.0, 1638.0, 1640.0, 1644.0, 1635.0, 1636.0, 1636.0, 1640.0, 1641.0, 1639.0, 1638.0, 1639.0, 1645.0, 1643.0, 1640.0, 1639.0, 1640.0, 1642.0, 1640.0, 1644.0, 1639.0, 1640.0, 1641.0, 1641.0, 1638.0, 1640.0, 1642.0, 1641.0, 1642.0, 1641.0, 1643.0, 1643.0, 1645.0, 1652.0, 1641.0, 1640.0, 1642.0, 1650.0, 1635.0, 1637.0, 1643.0, 1637.0, 1637.0, 1639.0, 1637.0, 1639.0, 1641.0, 1639.0, 1640.0, 1640.0, 1640.0, 1643.0, 1640.0, 1634.0, 1639.0, 1641.0, 1642.0]
    },
    "slices": {}
  }
}