{
  "AcquisitionMatrixPE": 70,
  "AcquisitionNumber": 1,
  "AcquisitionTime": "12:17:55.047500",
  "BandwidthPerPixelPhaseEncode": 38.873,
  "BaseResolution": 70,
  "BodyPartExamined": "HEAD",
  "ConsistencyInfo": "N4_VE11B_LATEST_20150530",
  "ConversionSoftware": "dcm2niix",
  "ConversionSoftwareVersion": "v1.0.20190410  GCC6.3.0",
  "DerivedVendorReportedEchoSpacing": 0.000489996,
  "DeviceSerialNumber": "66088",
  "DwellTime": 2.9e-06,
  "EchoTime": 0.03,
  "EchoTrainLength": 53,
  "EffectiveEchoSpacing": 0.000367497,
  "FlipAngle": 90,
  "ImageOrientationPatientDICOM": [0.999122, -0.0393735, 0.0142925, 0.0418757, 0.946954, -0.31863],
  "ImageType": [
    "ORIGINAL",
    "PRIMARY",
    "M",
    "ND",
    "NORM",
    "MOSAIC"
],
  "ImagingFrequency": 123.191,
  "InPlanePhaseEncodingDirectionDICOM": "COL",
  "InstitutionAddress": "Street_StreetNo_City_District_IR_ZIP",
  "InstitutionName": "NBML",
  "InstitutionalDepartmentName": "Department",
  "MRAcquisitionType": "2D",
  "MagneticFieldStrength": 3,
  "Manufacturer": "Siemens",
  "ManufacturersModelName": "Prisma",
  "Modality": "MR",
  "ParallelReductionFactorInPlane": 2,
  "PartialFourier": 1,
  "PatientPosition": "HFS",
  "PercentPhaseFOV": 100,
  "PhaseEncodingDirection": "j-",
  "PhaseEncodingSteps": 105,
  "PhaseOversampling": 0.5,
  "PhaseResolution": 1,
  "PixelBandwidth": 2465,
  "ProcedureStepDescription": "NBML_Project_P-96169-Ebrahiminiya",
  "ProtocolName": "ep2d_p2_Task_3.5_measurment:237",
  "PulseSequenceDetails": "%SiemensSeq%_ep2d_pace",
  "ReceiveCoilActiveElements": "HC1-7",
  "ReceiveCoilName": "HeadNeck_64",
  "ReconMatrixPE": 70,
  "RefLinesPE": 24,
  "RepetitionTime": 2,
  "SAR": 0.0875599,
  "ScanOptions": "FS",
  "ScanningSequence": "EP",
  "SequenceName": "_epfid2d1_70",
  "SequenceVariant": "SK_OSP",
  "SeriesDescription": "ep2d_p2_Task_3.5_measurment:237",
  "SeriesNumber": 4,
  "ShimSetting": [2608, -4423, -3271, 192, -24, 63, -190, -1],
  "SliceThickness": 3.5,
  "SliceTiming": [0.99, 0, 1.0475, 0.0575, 1.1075, 0.1175, 1.165, 0.175, 1.2225, 0.2325, 1.2825, 0.2925, 1.34, 0.35, 1.3975, 0.4075, 1.455, 0.4675, 1.515, 0.525, 1.5725, 0.5825, 1.63, 0.64, 1.69, 0.7, 1.7475, 0.7575, 1.805, 0.815, 1.865, 0.875, 1.9225, 0.9325],
  "SoftwareVersions": "syngo_MR_E11",
  "SpacingBetweenSlices": 3.85,
  "StationName": "AWP66088",
  "TaskName": "categorySelectivity",
  "TotalReadoutTime": 0.0253573,
  "TxRefAmp": 234.269,
  "dcmmeta_affine": [
    [-3.539747714996338, 0.14835946261882782, 0.003806596389040351, 117.82808685302734],
    [0.13949471712112427, 3.354921579360962, -1.2279541492462158, -100.58063507080078],
    [0.05063622072339058, 1.1288615465164185, 3.6489195823669434, -83.33168029785156],
    [0.0, 0.0, 0.0, 1.0]
],
  "dcmmeta_reorient_transform": [
    [0.0, -1.0, 0.0, 69.0],
    [1.0, 0.0, 0.0, 0.0],
    [0.0, 0.0, 1.0, 0.0],
    [0.0, 0.0, 0.0, 1.0]
],
  "dcmmeta_shape": [70, 70, 34, 237],
  "dcmmeta_slice_dim": 2,
  "dcmmeta_version": 0.6,
  "global": {
    "const": {
      "AcquisitionMatrix": [70, 0, 0, 70],
      "AngioFlag": "N",
      "BitsAllocated": 16,
      "BitsStored": 12,
      "BodyPartExamined": "HEAD",
      "Columns": 420,
      "EchoNumbers": 1,
      "EchoTime": 30.0,
      "EchoTrainLength": 53,
      "FlipAngle": 90.0,
      "HighBit": 11,
      "ImageOrientationPatient": [0.99912234081644, -0.039373507067, 0.01429248133573, 0.04187565523932, 0.94695363482351, -0.3186302606358],
      "ImagePositionPatient": [-773.48365217861, -693.60862735469, 183.24918606654],
      "ImageType": [
        "ORIGINAL",
        "PRIMARY",
        "M",
        "ND",
        "NORM",
        "MOSAIC"
],
      "ImagedNucleus": "1H",
      "ImagingFrequency": 123.191165,
      "InPlanePhaseEncodingDirection": "COL",
      "MRAcquisitionType": "2D",
      "MagneticFieldStrength": 3.0,
      "Manufacturer": "SIEMENS",
      "ManufacturerModelName": "Prisma",
      "Modality": "MR",
      "NumberOfAverages": 1.0,
      "NumberOfPhaseEncodingSteps": 105,
      "PercentPhaseFieldOfView": 100.0,
      "PercentSampling": 100.0,
      "PerformedProcedureStepStartTime": "120203.586000",
      "PhotometricInterpretation": "MONOCHROME2",
      "PixelBandwidth": 2465.0,
      "PixelRepresentation": 0,
      "PixelSpacing": [3.542857170105, 3.542857170105],
      "ProtocolName": "ep2d_p2_Task_3.5_measurment:237",
      "RepetitionTime": 2000.0,
      "Rows": 420,
      "SAR": 0.08755992711111,
      "SamplesPerPixel": 1,
      "ScanOptions": "FS",
      "ScanningSequence": "EP",
      "SequenceName": "*epfid2d1_70",
      "SequenceVariant": [
        "SK",
        "OSP"
],
      "SeriesDescription": "ep2d_p2_Task_3.5_measurment:237",
      "SeriesNumber": 4,
      "SeriesTime": "121843.091000",
      "SliceLocation": -46.782773248146,
      "SliceThickness": 3.5,
      "SmallestImagePixelValue": 0,
      "SoftwareVersions": "syngo MR E11",
      "SpacingBetweenSlices": 3.8499999660576,
      "SpecificCharacterSet": "ISO_IR 100",
      "StudyID": "1",
      "StudyTime": "120203.425000",
      "TransmitCoilName": "Body",
      "VariableFlipAngleFlag": "N",
      "WindowCenterWidthExplanation": "Algo1",
      "dBdt": 0.0},
    "slices": {}
  },
  "time": {
    "samples": {
      "AcquisitionNumber": [1, 2, 3, 4, 5, 6, 7, 8, 9, 10, 11, 12, 13, 14, 15, 16, 17, 18, 19, 20, 21, 22, 23, 24, 25, 26, 27, 28, 29, 30, 31, 32, 33, 34, 35, 36, 37, 38, 39, 40, 41, 42, 43, 44, 45, 46, 47, 48, 49, 50, 51, 52, 53, 54, 55, 56, 57, 58, 59, 60, 61, 62, 63, 64, 65, 66, 67, 68, 69, 70, 71, 72, 73, 74, 75, 76, 77, 78, 79, 80, 81, 82, 83, 84, 85, 86, 87, 88, 89, 90, 91, 92, 93, 94, 95, 96, 97, 98, 99, 100, 101, 102, 103, 104, 105, 106, 107, 108, 109, 110, 111, 112, 113, 114, 115, 116, 117, 118, 119, 120, 121, 122, 123, 124, 125, 126, 127, 128, 129, 130, 131, 132, 133, 134, 135, 136, 137, 138, 139, 140, 141, 142, 143, 144, 145, 146, 147, 148, 149, 150, 151, 152, 153, 154, 155, 156, 157, 158, 159, 160, 161, 162, 163, 164, 165, 166, 167, 168, 169, 170, 171, 172, 173, 174, 175, 176, 177, 178, 179, 180, 181, 182, 183, 184, 185, 186, 187, 188, 189, 190, 191, 192, 193, 194, 195, 196, 197, 198, 199, 200, 201, 202, 203, 204, 205, 206, 207, 208, 209, 210, 211, 212, 213, 214, 215, 216, 217, 218, 219, 220, 221, 222, 223, 224, 225, 226, 227, 228, 229, 230, 231, 232, 233, 234, 235, 236, 237],
      "AcquisitionTime": ["121755.047500", "121757.047500", "121759.047500", "121801.047500", "121803.047500", "121805.047500", "121807.047500", "121809.047500", "121811.047500", "121813.047500", "121815.047500", "121817.047500", "121819.047500", "121821.047500", "121823.047500", "121825.047500", "121827.047500", "121829.047500", "121831.047500", "121833.047500", "121835.047500", "121837.047500", "121839.047500", "121841.047500", "121843.047500", "121845.047500", "121847.047500", "121849.047500", "121851.047500", "121853.047500", "121855.047500", "121857.047500", "121859.047500", "121901.047500", "121903.047500", "121905.047500", "121907.047500", "121909.047500", "121911.047500", "121913.047500", "121915.047500", "121917.047500", "121919.047500", "121921.047500", "121923.047500", "121925.047500", "121927.047500", "121929.047500", "121931.047500", "121933.047500", "121935.047500", "121937.047500", "121939.047500", "121941.047500", "121943.047500", "121945.047500", "121947.047500", "121949.047500", "121951.047500", "121953.047500", "121955.047500", "121957.047500", "121959.047500", "122001.047500", "122003.047500", "122005.047500", "122007.047500", "122009.047500", "122011.047500", "122013.047500", "122015.047500", "122017.047500", "122019.047500", "122021.047500", "122023.047500", "122025.047500", "122027.047500", "122029.047500", "122031.047500", "122033.047500", "122035.047500", "122037.047500", "122039.047500", "122041.047500", "122043.047500", "122045.047500", "122047.047500", "122049.047500", "122051.047500", "122053.047500", "122055.047500", "122057.047500", "122059.047500", "122101.047500", "122103.047500", "122105.047500", "122107.047500", "122109.047500", "122111.047500", "122113.047500", "122115.047500", "122117.047500", "122119.047500", "122121.047500", "122123.047500", "122125.047500", "122127.047500", "122129.047500", "122131.047500", "122133.047500", "122135.047500", "122137.047500", "122139.047500", "122141.047500", "122143.047500", "122145.047500", "122147.047500", "122149.047500", "122151.047500", "122153.047500", "122155.047500", "122157.047500", "122159.047500", "122201.047500", "122203.047500", "122205.047500", "122207.047500", "122209.047500", "122211.047500", "122213.047500", "122215.047500", "122217.047500", "122219.047500", "122221.047500", "122223.047500", "122225.047500", "122227.047500", "122229.047500", "122231.047500", "122233.047500", "122235.047500", "122237.047500", "122239.047500", "122241.047500", "122243.047500", "122245.047500", "122247.047500", "122249.047500", "122251.047500", "122253.047500", "122255.047500", "122257.047500", "122259.047500", "122301.047500", "122303.047500", "122305.047500", "122307.047500", "122309.047500", "122311.047500", "122313.047500", "122315.047500", "122317.047500", "122319.047500", "122321.047500", "122323.047500", "122325.047500", "122327.047500", "122329.047500", "122331.047500", "122333.047500", "122335.047500", "122337.047500", "122339.047500", "122341.047500", "122343.047500", "122345.047500", "122347.047500", "122349.047500", "122351.047500", "122353.047500", "122355.047500", "122357.047500", "122359.047500", "122401.047500", "122403.047500", "122405.047500", "122407.047500", "122409.047500", "122411.047500", "122413.047500", "122415.047500", "122417.047500", "122419.047500", "122421.047500", "122423.047500", "122425.047500", "122427.047500", "122429.047500", "122431.047500", "122433.047500", "122435.047500", "122437.047500", "122439.047500", "122441.047500", "122443.047500", "122445.047500", "122447.047500", "122449.047500", "122451.047500", "122453.047500", "122455.047500", "122457.047500", "122459.047500", "122501.047500", "122503.047500", "122505.047500", "122507.047500", "122509.047500", "122511.047500", "122513.047500", "122515.047500", "122517.047500", "122519.047500", "122521.047500", "122523.047500", "122525.047500", "122527.047500", "122529.047500", "122531.047500", "122533.047500", "122535.047500", "122537.047500", "122539.047500", "122541.047500", "122543.047500", "122545.047500", "122547.047500"],
      "ContentTime": ["121843.095000", "121843.098000", "121843.101000", "121843.103000", "121843.106000", "121843.108000", "121843.111000", "121843.113000", "121843.115000", "121843.118000", "121843.120000", "121843.123000", "121843.125000", "121843.127000", "121843.130000", "121843.132000", "121843.135000", "121843.137000", "121843.152000", "121843.155000", "121843.157000", "121843.159000", "121843.162000", "121843.164000", "121923.090000", "121923.093000", "121923.095000", "121923.098000", "121923.100000", "121923.102000", "121923.105000", "121923.107000", "121923.109000", "121923.112000", "121923.114000", "121923.117000", "121923.119000", "121923.122000", "121923.124000", "121923.126000", "121923.129000", "121923.131000", "121923.134000", "121923.136000", "122003.091000", "122003.094000", "122003.098000", "122003.101000", "122003.104000", "122003.107000", "122003.110000", "122003.113000", "122003.117000", "122003.120000", "122003.123000", "122003.126000", "122003.129000", "122003.133000", "122003.136000", "122003.139000", "122003.142000", "122003.146000", "122003.149000", "122003.152000", "122043.089000", "122043.092000", "122043.095000", "122043.097000", "122043.100000", "122043.102000", "122043.104000", "122043.107000", "122043.109000", "122043.112000", "122043.114000", "122043.117000", "122043.119000", "122043.121000", "122043.124000", "122043.127000", "122043.129000", "122043.132000", "122043.134000", "122043.136000", "122123.088000", "122123.091000", "122123.094000", "122123.096000", "122123.099000", "122123.101000", "122123.103000", "122123.106000", "122123.108000", "122123.111000", "122123.113000", "122123.115000", "122123.118000", "122123.120000", "122123.123000", "122123.125000", "122123.128000", "122123.130000", "122123.132000", "122123.135000", "122203.090000", "122203.093000", "122203.096000", "122203.099000", "122203.103000", "122203.106000", "122203.109000", "122203.112000", "122203.115000", "122203.118000", "122203.121000", "122203.124000", "122203.128000", "122203.143000", "122203.146000", "122203.149000", "122203.152000", "122203.155000", "122203.158000", "122203.161000", "122243.089000", "122243.092000", "122243.095000", "122243.098000", "122243.100000", "122243.103000", "122243.106000", "122243.108000", "122243.111000", "122243.113000", "122243.116000", "122243.118000", "122243.125000", "122243.128000", "122243.130000", "122243.133000", "122243.136000", "122243.138000", "122243.141000", "122243.143000", "122323.090000", "122323.092000", "122323.095000", "122323.097000", "122323.100000", "122323.102000", "122323.104000", "122323.107000", "122323.109000", "122323.112000", "122323.114000", "122323.116000", "122323.119000", "122323.121000", "122323.124000", "122323.126000", "122323.129000", "122323.131000", "122323.133000", "122323.136000", "122403.090000", "122403.094000", "122403.097000", "122403.100000", "122403.112000", "122403.115000", "122403.118000", "122403.121000", "122403.124000", "122403.127000", "122403.130000", "122403.134000", "122403.137000", "122403.140000", "122403.143000", "122403.146000", "122403.150000", "122403.154000", "122403.157000", "122403.160000", "122443.090000", "122443.092000", "122443.095000", "122443.097000", "122443.100000", "122443.102000", "122443.105000", "122443.107000", "122443.110000", "122443.112000", "122443.114000", "122443.117000", "122443.119000", "122443.122000", "122443.124000", "122443.127000", "122443.129000", "122443.132000", "122443.134000", "122443.137000", "122523.090000", "122523.092000", "122523.095000", "122523.097000", "122523.100000", "122523.102000", "122523.104000", "122523.107000", "122523.110000", "122523.112000", "122523.114000", "122523.117000", "122523.119000", "122523.122000", "122523.124000", "122523.126000", "122523.129000", "122523.131000", "122523.134000", "122523.136000", "122548.148000", "122548.151000", "122548.154000", "122548.157000", "122548.160000", "122548.163000", "122548.167000", "122548.170000", "122548.173000", "122548.176000", "122548.180000", "122548.184000", "122548.187000"],
      "InstanceCreationTime": ["121843.095000", "121843.098000", "121843.101000", "121843.103000", "121843.106000", "121843.108000", "121843.111000", "121843.113000", "121843.115000", "121843.118000", "121843.120000", "121843.123000", "121843.125000", "121843.127000", "121843.130000", "121843.132000", "121843.135000", "121843.137000", "121843.152000", "121843.155000", "121843.157000", "121843.159000", "121843.162000", "121843.164000", "121923.090000", "121923.093000", "121923.095000", "121923.098000", "121923.100000", "121923.102000", "121923.105000", "121923.107000", "121923.109000", "121923.112000", "121923.114000", "121923.117000", "121923.119000", "121923.122000", "121923.124000", "121923.126000", "121923.129000", "121923.131000", "121923.134000", "121923.136000", "122003.091000", "122003.094000", "122003.098000", "122003.101000", "122003.104000", "122003.107000", "122003.110000", "122003.113000", "122003.117000", "122003.120000", "122003.123000", "122003.126000", "122003.129000", "122003.133000", "122003.136000", "122003.139000", "122003.142000", "122003.146000", "122003.149000", "122003.152000", "122043.089000", "122043.092000", "122043.095000", "122043.097000", "122043.100000", "122043.102000", "122043.104000", "122043.107000", "122043.109000", "122043.112000", "122043.114000", "122043.117000", "122043.119000", "122043.121000", "122043.124000", "122043.127000", "122043.129000", "122043.132000", "122043.134000", "122043.136000", "122123.088000", "122123.091000", "122123.094000", "122123.096000", "122123.099000", "122123.101000", "122123.103000", "122123.106000", "122123.108000", "122123.111000", "122123.113000", "122123.115000", "122123.118000", "122123.120000", "122123.123000", "122123.125000", "122123.128000", "122123.130000", "122123.132000", "122123.135000", "122203.090000", "122203.093000", "122203.096000", "122203.099000", "122203.103000", "122203.106000", "122203.109000", "122203.112000", "122203.115000", "122203.118000", "122203.121000", "122203.124000", "122203.128000", "122203.143000", "122203.146000", "122203.149000", "122203.152000", "122203.155000", "122203.158000", "122203.161000", "122243.089000", "122243.092000", "122243.095000", "122243.098000", "122243.100000", "122243.103000", "122243.106000", "122243.108000", "122243.111000", "122243.113000", "122243.116000", "122243.118000", "122243.125000", "122243.128000", "122243.130000", "122243.133000", "122243.136000", "122243.138000", "122243.141000", "122243.143000", "122323.090000", "122323.092000", "122323.095000", "122323.097000", "122323.100000", "122323.102000", "122323.104000", "122323.107000", "122323.109000", "122323.112000", "122323.114000", "122323.116000", "122323.119000", "122323.121000", "122323.124000", "122323.126000", "122323.129000", "122323.131000", "122323.133000", "122323.136000", "122403.090000", "122403.094000", "122403.097000", "122403.100000", "122403.112000", "122403.115000", "122403.118000", "122403.121000", "122403.124000", "122403.127000", "122403.130000", "122403.134000", "122403.137000", "122403.140000", "122403.143000", "122403.146000", "122403.150000", "122403.154000", "122403.157000", "122403.160000", "122443.090000", "122443.092000", "122443.095000", "122443.097000", "122443.100000", "122443.102000", "122443.105000", "122443.107000", "122443.110000", "122443.112000", "122443.114000", "122443.117000", "122443.119000", "122443.122000", "122443.124000", "122443.127000", "122443.129000", "122443.132000", "122443.134000", "122443.137000", "122523.090000", "122523.092000", "122523.095000", "122523.097000", "122523.100000", "122523.102000", "122523.104000", "122523.107000", "122523.110000", "122523.112000", "122523.114000", "122523.117000", "122523.119000", "122523.122000", "122523.124000", "122523.126000", "122523.129000", "122523.131000", "122523.134000", "122523.136000", "122548.148000", "122548.151000", "122548.154000", "122548.157000", "122548.160000", "122548.163000", "122548.167000", "122548.170000", "122548.173000", "122548.176000", "122548.180000", "122548.184000", "122548.187000"],
      "InstanceNumber": [1, 2, 3, 4, 5, 6, 7, 8, 9, 10, 11, 12, 13, 14, 15, 16, 17, 18, 19, 20, 21, 22, 23, 24, 25, 26, 27, 28, 29, 30, 31, 32, 33, 34, 35, 36, 37, 38, 39, 40, 41, 42, 43, 44, 45, 46, 47, 48, 49, 50, 51, 52, 53, 54, 55, 56, 57, 58, 59, 60, 61, 62, 63, 64, 65, 66, 67, 68, 69, 70, 71, 72, 73, 74, 75, 76, 77, 78, 79, 80, 81, 82, 83, 84, 85, 86, 87, 88, 89, 90, 91, 92, 93, 94, 95, 96, 97, 98, 99, 100, 101, 102, 103, 104, 105, 106, 107, 108, 109, 110, 111, 112, 113, 114, 115, 116, 117, 118, 119, 120, 121, 122, 123, 124, 125, 126, 127, 128, 129, 130, 131, 132, 133, 134, 135, 136, 137, 138, 139, 140, 141, 142, 143, 144, 145, 146, 147, 148, 149, 150, 151, 152, 153, 154, 155, 156, 157, 158, 159, 160, 161, 162, 163, 164, 165, 166, 167, 168, 169, 170, 171, 172, 173, 174, 175, 176, 177, 178, 179, 180, 181, 182, 183, 184, 185, 186, 187, 188, 189, 190, 191, 192, 193, 194, 195, 196, 197, 198, 199, 200, 201, 202, 203, 204, 205, 206, 207, 208, 209, 210, 211, 212, 213, 214, 215, 216, 217, 218, 219, 220, 221, 222, 223, 224, 225, 226, 227, 228, 229, 230, 231, 232, 233, 234, 235, 236, 237],
      "LargestImagePixelValue": [2105, 3403, 2010, 2247, 2516, 1984, 2626, 3047, 1962, 2224, 2255, 1944, 2360, 1977, 2002, 3140, 1968, 2003, 2765, 2120, 1985, 2664, 1950, 1981, 2146, 2056, 1966, 2169, 3131, 2003, 1972, 2011, 2010, 3279, 2006, 1988, 2698, 1971, 2717, 1976, 2784, 1984, 2654, 2003, 2966, 2017, 2014, 1923, 2010, 2153, 2559, 1992, 2003, 2513, 2779, 2018, 2133, 2463, 2194, 2015, 1989, 2491, 1994, 1996, 2736, 2404, 1981, 2705, 2045, 1966, 2544, 2821, 1974, 2099, 2784, 1992, 1997, 2064, 2011, 2307, 1978, 1977, 2320, 2299, 2904, 1985, 1946, 2312, 2472, 2153, 1984, 1970, 2658, 1981, 1989, 2854, 1922, 1955, 2816, 1920, 1962, 2650, 2196, 1966, 1965, 2342, 1950, 1992, 3127, 1996, 1973, 2460, 2637, 1957, 2121, 3275, 1944, 1987, 2538, 2777, 1955, 1943, 2380, 2090, 1941, 2511, 2070, 1953, 3165, 1955, 2136, 1904, 1928, 3121, 1927, 1980, 2470, 1934, 2188, 2367, 1947, 2783, 1914, 2157, 2783, 1927, 2315, 3032, 1933, 1955, 2836, 2101, 1937, 1911, 2480, 2137, 1945, 1944, 2596, 1904, 2209, 2780, 1887, 2139, 2122, 1907, 2940, 1941, 2261, 1889, 1949, 2142, 1908, 1916, 2509, 2407, 1890, 2646, 1960, 1935, 2518, 1885, 2982, 1910, 2651, 1902, 2464, 1924, 3069, 1899, 2398, 1912, 2600, 1969, 1865, 1990, 2666, 1994, 1853, 2420, 1947, 1872, 1961, 2718, 1946, 1980, 2013, 1828, 2157, 2227, 2148, 1905, 1889, 1903, 2284, 2134, 1995, 1844, 1915, 2637, 1929, 1939, 1866, 2331, 1991, 1991, 1832, 3239, 1945, 1851, 1876, 2765, 1916, 1903, 2138, 1907, 1909],
      "WindowCenter": [711.0, 712.0, 709.0, 709.0, 710.0, 709.0, 711.0, 710.0, 708.0, 709.0, 709.0, 707.0, 709.0, 709.0, 708.0, 710.0, 708.0, 709.0, 710.0, 708.0, 708.0, 710.0, 709.0, 709.0, 708.0, 708.0, 708.0, 709.0, 711.0, 708.0, 708.0, 709.0, 709.0, 711.0, 708.0, 708.0, 710.0, 709.0, 711.0, 708.0, 711.0, 709.0, 711.0, 709.0, 711.0, 709.0, 708.0, 709.0, 709.0, 709.0, 709.0, 709.0, 710.0, 710.0, 711.0, 709.0, 709.0, 708.0, 709.0, 709.0, 709.0, 710.0, 710.0, 709.0, 711.0, 710.0, 709.0, 710.0, 709.0, 709.0, 711.0, 710.0, 708.0, 709.0, 711.0, 709.0, 709.0, 709.0, 709.0, 710.0, 709.0, 709.0, 709.0, 709.0, 711.0, 709.0, 708.0, 709.0, 710.0, 709.0, 709.0, 709.0, 711.0, 709.0, 710.0, 711.0, 708.0, 709.0, 711.0, 709.0, 709.0, 711.0, 710.0, 709.0, 709.0, 710.0, 709.0, 709.0, 712.0, 709.0, 709.0, 709.0, 710.0, 709.0, 709.0, 711.0, 709.0, 709.0, 710.0, 711.0, 709.0, 708.0, 710.0, 710.0, 709.0, 710.0, 709.0, 709.0, 711.0, 708.0, 710.0, 708.0, 709.0, 711.0, 709.0, 708.0, 710.0, 709.0, 709.0, 710.0, 710.0, 711.0, 709.0, 709.0, 711.0, 709.0, 709.0, 711.0, 708.0, 710.0, 711.0, 709.0, 708.0, 708.0, 710.0, 709.0, 709.0, 709.0, 711.0, 710.0, 710.0, 711.0, 709.0, 709.0, 710.0, 709.0, 711.0, 709.0, 710.0, 710.0, 709.0, 710.0, 709.0, 709.0, 710.0, 710.0, 709.0, 711.0, 709.0, 709.0, 710.0, 709.0, 711.0, 709.0, 711.0, 709.0, 712.0, 709.0, 712.0, 708.0, 710.0, 709.0, 710.0, 709.0, 709.0, 709.0, 712.0, 709.0, 708.0, 710.0, 709.0, 709.0, 709.0, 711.0, 710.0, 710.0, 710.0, 709.0, 710.0, 710.0, 710.0, 708.0, 709.0, 709.0, 709.0, 709.0, 710.0, 709.0, 709.0, 711.0, 709.0, 709.0, 709.0, 710.0, 709.0, 710.0, 709.0, 711.0, 708.0, 709.0, 710.0, 711.0, 709.0, 709.0, 710.0, 709.0, 709.0],
      "WindowWidth": [1582.0, 1588.0, 1575.0, 1577.0, 1579.0, 1575.0, 1581.0, 1582.0, 1572.0, 1574.0, 1576.0, 1570.0, 1575.0, 1573.0, 1572.0, 1581.0, 1571.0, 1574.0, 1580.0, 1573.0, 1572.0, 1579.0, 1575.0, 1574.0, 1574.0, 1574.0, 1574.0, 1576.0, 1582.0, 1573.0, 1573.0, 1576.0, 1576.0, 1585.0, 1572.0, 1573.0, 1580.0, 1574.0, 1582.0, 1573.0, 1582.0, 1576.0, 1583.0, 1576.0, 1583.0, 1575.0, 1573.0, 1576.0, 1576.0, 1574.0, 1577.0, 1576.0, 1577.0, 1580.0, 1583.0, 1577.0, 1575.0, 1575.0, 1575.0, 1574.0, 1576.0, 1580.0, 1577.0, 1577.0, 1584.0, 1579.0, 1574.0, 1580.0, 1574.0, 1576.0, 1582.0, 1581.0, 1574.0, 1575.0, 1583.0, 1577.0, 1576.0, 1574.0, 1574.0, 1578.0, 1576.0, 1574.0, 1576.0, 1575.0, 1582.0, 1575.0, 1573.0, 1576.0, 1578.0, 1576.0, 1574.0, 1575.0, 1582.0, 1577.0, 1578.0, 1582.0, 1574.0, 1576.0, 1584.0, 1575.0, 1576.0, 1583.0, 1580.0, 1575.0, 1575.0, 1579.0, 1576.0, 1576.0, 1585.0, 1575.0, 1574.0, 1578.0, 1580.0, 1576.0, 1576.0, 1585.0, 1574.0, 1574.0, 1580.0, 1582.0, 1575.0, 1573.0, 1579.0, 1577.0, 1574.0, 1579.0, 1577.0, 1576.0, 1584.0, 1574.0, 1577.0, 1573.0, 1575.0, 1585.0, 1574.0, 1574.0, 1580.0, 1575.0, 1576.0, 1579.0, 1576.0, 1582.0, 1574.0, 1576.0, 1582.0, 1574.0, 1577.0, 1583.0, 1572.0, 1577.0, 1583.0, 1574.0, 1571.0, 1572.0, 1579.0, 1575.0, 1575.0, 1575.0, 1583.0, 1577.0, 1579.0, 1583.0, 1574.0, 1577.0, 1577.0, 1574.0, 1583.0, 1574.0, 1578.0, 1576.0, 1574.0, 1577.0, 1576.0, 1573.0, 1579.0, 1578.0, 1575.0, 1583.0, 1575.0, 1575.0, 1581.0, 1575.0, 1585.0, 1575.0, 1582.0, 1576.0, 1584.0, 1576.0, 1586.0, 1573.0, 1579.0, 1574.0, 1580.0, 1575.0, 1575.0, 1576.0, 1586.0, 1576.0, 1572.0, 1579.0, 1576.0, 1575.0, 1574.0, 1582.0, 1577.0, 1579.0, 1578.0, 1574.0, 1578.0, 1579.0, 1578.0, 1573.0, 1573.0, 1575.0, 1577.0, 1577.0, 1578.0, 1574.0, 1574.0, 1581.0, 1574.0, 1576.0, 1573.0, 1578.0, 1576.0, 1577.0, 1574.0, 1584.0, 1573.0, 1574.0, 1577.0, 1582.0, 1574.0, 1574.0, 1577.0, 1575.0, 1576.0]
    },
    "slices": {}
  }
}