{
  "AcquisitionMatrixPE": 70,
  "AcquisitionNumber": 1,
  "AcquisitionTime": "12:36:39.062500",
  "BandwidthPerPixelPhaseEncode": 38.873,
  "BaseResolution": 70,
  "BodyPartExamined": "HEAD",
  "ConsistencyInfo": "N4_VE11B_LATEST_20150530",
  "ConversionSoftware": "dcm2niix",
  "ConversionSoftwareVersion": "v1.0.20190410  GCC6.3.0",
  "DerivedVendorReportedEchoSpacing": 0.000489996,
  "DeviceSerialNumber": "66088",
  "DwellTime": 2.9e-06,
  "EchoTime": 0.03,
  "EchoTrainLength": 53,
  "EffectiveEchoSpacing": 0.000367497,
  "FlipAngle": 90,
  "ImageOrientationPatientDICOM": [0.999122, -0.0393735, 0.0142925, 0.0418757, 0.946954, -0.31863],
  "ImageType": [
    "ORIGINAL",
    "PRIMARY",
    "M",
    "ND",
    "NORM",
    "MOSAIC"
],
  "ImagingFrequency": 123.191,
  "InPlanePhaseEncodingDirectionDICOM": "COL",
  "InstitutionAddress": "Street_StreetNo_City_District_IR_ZIP",
  "InstitutionName": "NBML",
  "InstitutionalDepartmentName": "Department",
  "MRAcquisitionType": "2D",
  "MagneticFieldStrength": 3,
  "Manufacturer": "Siemens",
  "ManufacturersModelName": "Prisma",
  "Modality": "MR",
  "ParallelReductionFactorInPlane": 2,
  "PartialFourier": 1,
  "PatientPosition": "HFS",
  "PercentPhaseFOV": 100,
  "PhaseEncodingDirection": "j-",
  "PhaseEncodingSteps": 105,
  "PhaseOversampling": 0.5,
  "PhaseResolution": 1,
  "PixelBandwidth": 2465,
  "ProcedureStepDescription": "NBML_Project_P-96169-Ebrahiminiya",
  "ProtocolName": "ep2d_p2_Task_3.5_measurment:237",
  "PulseSequenceDetails": "%SiemensSeq%_ep2d_pace",
  "ReceiveCoilActiveElements": "HC1-7",
  "ReceiveCoilName": "HeadNeck_64",
  "ReconMatrixPE": 70,
  "RefLinesPE": 24,
  "RepetitionTime": 2,
  "SAR": 0.0875599,
  "ScanOptions": "FS",
  "ScanningSequence": "EP",
  "SequenceName": "_epfid2d1_70",
  "SequenceVariant": "SK_OSP",
  "SeriesDescription": "ep2d_p2_Task_3.5_measurment:237",
  "SeriesNumber": 6,
  "ShimSetting": [2608, -4423, -3271, 192, -24, 63, -190, -1],
  "SliceThickness": 3.5,
  "SliceTiming": [0.99, 0, 1.0475, 0.06, 1.1075, 0.1175, 1.165, 0.175, 1.2225, 0.2325, 1.2825, 0.2925, 1.34, 0.35, 1.3975, 0.4075, 1.4575, 0.4675, 1.515, 0.525, 1.5725, 0.5825, 1.63, 0.64, 1.69, 0.7, 1.7475, 0.7575, 1.805, 0.815, 1.865, 0.875, 1.9225, 0.9325],
  "SoftwareVersions": "syngo_MR_E11",
  "SpacingBetweenSlices": 3.85,
  "StationName": "AWP66088",
  "TaskName": "categorySelectivity",
  "TotalReadoutTime": 0.0253573,
  "TxRefAmp": 234.269,
  "dcmmeta_affine": [
    [-3.539747714996338, 0.14835946261882782, 0.003806596389040351, 117.82808685302734],
    [0.13949471712112427, 3.354921579360962, -1.2279541492462158, -100.58063507080078],
    [0.05063622072339058, 1.1288615465164185, 3.6489195823669434, -83.33168029785156],
    [0.0, 0.0, 0.0, 1.0]
],
  "dcmmeta_reorient_transform": [
    [0.0, -1.0, 0.0, 69.0],
    [1.0, 0.0, 0.0, 0.0],
    [0.0, 0.0, 1.0, 0.0],
    [0.0, 0.0, 0.0, 1.0]
],
  "dcmmeta_shape": [70, 70, 34, 237],
  "dcmmeta_slice_dim": 2,
  "dcmmeta_version": 0.6,
  "global": {
    "const": {
      "AcquisitionMatrix": [70, 0, 0, 70],
      "AngioFlag": "N",
      "BitsAllocated": 16,
      "BitsStored": 12,
      "BodyPartExamined": "HEAD",
      "Columns": 420,
      "EchoNumbers": 1,
      "EchoTime": 30.0,
      "EchoTrainLength": 53,
      "FlipAngle": 90.0,
      "HighBit": 11,
      "ImageOrientationPatient": [0.99912234081644, -0.039373507067, 0.01429248133573, 0.04187565523932, 0.94695363482351, -0.3186302606358],
      "ImagePositionPatient": [-773.48365217861, -693.60862735469, 183.24918606654],
      "ImageType": [
        "ORIGINAL",
        "PRIMARY",
        "M",
        "ND",
        "NORM",
        "MOSAIC"
],
      "ImagedNucleus": "1H",
      "ImagingFrequency": 123.191168,
      "InPlanePhaseEncodingDirection": "COL",
      "MRAcquisitionType": "2D",
      "MagneticFieldStrength": 3.0,
      "Manufacturer": "SIEMENS",
      "ManufacturerModelName": "Prisma",
      "Modality": "MR",
      "NumberOfAverages": 1.0,
      "NumberOfPhaseEncodingSteps": 105,
      "PercentPhaseFieldOfView": 100.0,
      "PercentSampling": 100.0,
      "PerformedProcedureStepStartTime": "120203.586000",
      "PhotometricInterpretation": "MONOCHROME2",
      "PixelBandwidth": 2465.0,
      "PixelRepresentation": 0,
      "PixelSpacing": [3.542857170105, 3.542857170105],
      "ProtocolName": "ep2d_p2_Task_3.5_measurment:237",
      "RepetitionTime": 2000.0,
      "Rows": 420,
      "SAR": 0.08755992711111,
      "SamplesPerPixel": 1,
      "ScanOptions": "FS",
      "ScanningSequence": "EP",
      "SequenceName": "*epfid2d1_70",
      "SequenceVariant": [
        "SK",
        "OSP"
],
      "SeriesDescription": "ep2d_p2_Task_3.5_measurment:237",
      "SeriesNumber": 6,
      "SeriesTime": "123727.466000",
      "SliceLocation": -46.782773248146,
      "SliceThickness": 3.5,
      "SmallestImagePixelValue": 0,
      "SoftwareVersions": "syngo MR E11",
      "SpacingBetweenSlices": 3.8499999660576,
      "SpecificCharacterSet": "ISO_IR 100",
      "StudyID": "1",
      "StudyTime": "120203.425000",
      "TransmitCoilName": "Body",
      "VariableFlipAngleFlag": "N",
      "WindowCenterWidthExplanation": "Algo1",
      "dBdt": 0.0},
    "slices": {}
  },
  "time": {
    "samples": {
      "AcquisitionNumber": [1, 2, 3, 4, 5, 6, 7, 8, 9, 10, 11, 12, 13, 14, 15, 16, 17, 18, 19, 20, 21, 22, 23, 24, 25, 26, 27, 28, 29, 30, 31, 32, 33, 34, 35, 36, 37, 38, 39, 40, 41, 42, 43, 44, 45, 46, 47, 48, 49, 50, 51, 52, 53, 54, 55, 56, 57, 58, 59, 60, 61, 62, 63, 64, 65, 66, 67, 68, 69, 70, 71, 72, 73, 74, 75, 76, 77, 78, 79, 80, 81, 82, 83, 84, 85, 86, 87, 88, 89, 90, 91, 92, 93, 94, 95, 96, 97, 98, 99, 100, 101, 102, 103, 104, 105, 106, 107, 108, 109, 110, 111, 112, 113, 114, 115, 116, 117, 118, 119, 120, 121, 122, 123, 124, 125, 126, 127, 128, 129, 130, 131, 132, 133, 134, 135, 136, 137, 138, 139, 140, 141, 142, 143, 144, 145, 146, 147, 148, 149, 150, 151, 152, 153, 154, 155, 156, 157, 158, 159, 160, 161, 162, 163, 164, 165, 166, 167, 168, 169, 170, 171, 172, 173, 174, 175, 176, 177, 178, 179, 180, 181, 182, 183, 184, 185, 186, 187, 188, 189, 190, 191, 192, 193, 194, 195, 196, 197, 198, 199, 200, 201, 202, 203, 204, 205, 206, 207, 208, 209, 210, 211, 212, 213, 214, 215, 216, 217, 218, 219, 220, 221, 222, 223, 224, 225, 226, 227, 228, 229, 230, 231, 232, 233, 234, 235, 236, 237],
      "AcquisitionTime": ["123639.062500", "123641.062500", "123643.062500", "123645.062500", "123647.062500", "123649.062500", "123651.062500", "123653.062500", "123655.062500", "123657.062500", "123659.062500", "123701.062500", "123703.062500", "123705.062500", "123707.062500", "123709.062500", "123711.062500", "123713.062500", "123715.062500", "123717.062500", "123719.062500", "123721.062500", "123723.062500", "123725.062500", "123727.062500", "123729.062500", "123731.062500", "123733.062500", "123735.062500", "123737.062500", "123739.062500", "123741.062500", "123743.062500", "123745.062500", "123747.062500", "123749.062500", "123751.062500", "123753.062500", "123755.062500", "123757.062500", "123759.062500", "123801.062500", "123803.062500", "123805.062500", "123807.062500", "123809.062500", "123811.062500", "123813.062500", "123815.062500", "123817.062500", "123819.062500", "123821.062500", "123823.062500", "123825.062500", "123827.062500", "123829.062500", "123831.062500", "123833.062500", "123835.062500", "123837.062500", "123839.062500", "123841.062500", "123843.062500", "123845.062500", "123847.062500", "123849.062500", "123851.062500", "123853.062500", "123855.062500", "123857.062500", "123859.062500", "123901.062500", "123903.062500", "123905.062500", "123907.062500", "123909.062500", "123911.062500", "123913.062500", "123915.062500", "123917.062500", "123919.062500", "123921.062500", "123923.062500", "123925.062500", "123927.062500", "123929.062500", "123931.062500", "123933.062500", "123935.062500", "123937.062500", "123939.062500", "123941.062500", "123943.062500", "123945.062500", "123947.062500", "123949.062500", "123951.062500", "123953.062500", "123955.062500", "123957.062500", "123959.062500", "124001.062500", "124003.062500", "124005.062500", "124007.062500", "124009.062500", "124011.062500", "124013.062500", "124015.062500", "124017.062500", "124019.062500", "124021.062500", "124023.062500", "124025.062500", "124027.062500", "124029.062500", "124031.062500", "124033.062500", "124035.062500", "124037.062500", "124039.062500", "124041.062500", "124043.062500", "124045.062500", "124047.062500", "124049.062500", "124051.062500", "124053.062500", "124055.062500", "124057.062500", "124059.062500", "124101.062500", "124103.062500", "124105.062500", "124107.062500", "124109.062500", "124111.062500", "124113.062500", "124115.062500", "124117.062500", "124119.062500", "124121.062500", "124123.062500", "124125.062500", "124127.062500", "124129.062500", "124131.062500", "124133.062500", "124135.062500", "124137.062500", "124139.062500", "124141.062500", "124143.062500", "124145.062500", "124147.062500", "124149.062500", "124151.062500", "124153.062500", "124155.062500", "124157.062500", "124159.062500", "124201.062500", "124203.062500", "124205.062500", "124207.062500", "124209.062500", "124211.062500", "124213.062500", "124215.062500", "124217.062500", "124219.062500", "124221.062500", "124223.062500", "124225.062500", "124227.062500", "124229.062500", "124231.062500", "124233.062500", "124235.062500", "124237.062500", "124239.062500", "124241.062500", "124243.062500", "124245.062500", "124247.062500", "124249.062500", "124251.062500", "124253.062500", "124255.062500", "124257.062500", "124259.062500", "124301.062500", "124303.062500", "124305.062500", "124307.062500", "124309.062500", "124311.062500", "124313.062500", "124315.062500", "124317.062500", "124319.062500", "124321.062500", "124323.062500", "124325.062500", "124327.062500", "124329.062500", "124331.062500", "124333.062500", "124335.062500", "124337.062500", "124339.062500", "124341.062500", "124343.062500", "124345.062500", "124347.062500", "124349.062500", "124351.062500", "124353.062500", "124355.062500", "124357.062500", "124359.062500", "124401.062500", "124403.062500", "124405.062500", "124407.062500", "124409.062500", "124411.062500", "124413.062500", "124415.062500", "124417.062500", "124419.062500", "124421.062500", "124423.062500", "124425.062500", "124427.062500", "124429.062500", "124431.062500"],
      "ContentTime": ["123727.470000", "123727.474000", "123727.477000", "123727.481000", "123727.484000", "123727.487000", "123727.490000", "123727.494000", "123727.497000", "123727.500000", "123727.503000", "123727.507000", "123727.510000", "123727.513000", "123727.516000", "123727.519000", "123727.530000", "123727.533000", "123727.536000", "123727.540000", "123727.543000", "123727.546000", "123727.549000", "123727.552000", "123807.463000", "123807.467000", "123807.469000", "123807.472000", "123807.474000", "123807.476000", "123807.479000", "123807.481000", "123807.484000", "123807.486000", "123807.489000", "123807.491000", "123807.493000", "123807.496000", "123807.498000", "123807.501000", "123807.503000", "123807.505000", "123807.508000", "123807.510000", "123847.464000", "123847.466000", "123847.469000", "123847.472000", "123847.474000", "123847.476000", "123847.479000", "123847.481000", "123847.484000", "123847.486000", "123847.489000", "123847.491000", "123847.493000", "123847.496000", "123847.498000", "123847.501000", "123847.503000", "123847.505000", "123847.508000", "123847.510000", "123927.464000", "123927.468000", "123927.471000", "123927.474000", "123927.477000", "123927.480000", "123927.483000", "123927.487000", "123927.490000", "123927.493000", "123927.496000", "123927.499000", "123927.502000", "123927.505000", "123927.509000", "123927.512000", "123927.515000", "123927.518000", "123927.521000", "123927.525000", "124007.464000", "124007.467000", "124007.469000", "124007.472000", "124007.474000", "124007.476000", "124007.479000", "124007.481000", "124007.484000", "124007.486000", "124007.489000", "124007.491000", "124007.493000", "124007.496000", "124007.498000", "124007.501000", "124007.503000", "124007.505000", "124007.508000", "124007.510000", "124047.463000", "124047.466000", "124047.469000", "124047.471000", "124047.474000", "124047.476000", "124047.479000", "124047.481000", "124047.484000", "124047.486000", "124047.489000", "124047.492000", "124047.494000", "124047.497000", "124047.500000", "124047.502000", "124047.504000", "124047.507000", "124047.509000", "124047.512000", "124127.464000", "124127.468000", "124127.471000", "124127.474000", "124127.477000", "124127.480000", "124127.484000", "124127.487000", "124127.490000", "124127.493000", "124127.496000", "124127.500000", "124127.503000", "124127.506000", "124127.509000", "124127.512000", "124127.515000", "124127.519000", "124127.522000", "124127.525000", "124207.464000", "124207.467000", "124207.470000", "124207.472000", "124207.475000", "124207.477000", "124207.480000", "124207.482000", "124207.485000", "124207.487000", "124207.490000", "124207.493000", "124207.495000", "124207.498000", "124207.501000", "124207.503000", "124207.506000", "124207.508000", "124207.511000", "124207.513000", "124247.463000", "124247.466000", "124247.469000", "124247.471000", "124247.474000", "124247.476000", "124247.479000", "124247.482000", "124247.484000", "124247.487000", "124247.489000", "124247.498000", "124247.500000", "124247.503000", "124247.506000", "124247.508000", "124247.511000", "124247.513000", "124247.516000", "124247.519000", "124327.464000", "124327.467000", "124327.470000", "124327.474000", "124327.477000", "124327.480000", "124327.483000", "124327.486000", "124327.489000", "124327.492000", "124327.496000", "124327.499000", "124327.502000", "124327.514000", "124327.517000", "124327.522000", "124327.525000", "124327.528000", "124327.531000", "124327.534000", "124407.463000", "124407.466000", "124407.469000", "124407.471000", "124407.474000", "124407.476000", "124407.479000", "124407.482000", "124407.484000", "124407.487000", "124407.489000", "124407.492000", "124407.494000", "124407.496000", "124407.499000", "124407.502000", "124407.504000", "124407.507000", "124407.509000", "124407.512000", "124432.522000", "124432.525000", "124432.528000", "124432.531000", "124432.534000", "124432.537000", "124432.541000", "124432.544000", "124432.547000", "124432.550000", "124432.553000", "124432.557000", "124432.566000"],
      "InstanceCreationTime": ["123727.470000", "123727.474000", "123727.477000", "123727.481000", "123727.484000", "123727.487000", "123727.490000", "123727.494000", "123727.497000", "123727.500000", "123727.503000", "123727.507000", "123727.510000", "123727.513000", "123727.516000", "123727.519000", "123727.530000", "123727.533000", "123727.536000", "123727.540000", "123727.543000", "123727.546000", "123727.549000", "123727.552000", "123807.463000", "123807.467000", "123807.469000", "123807.472000", "123807.474000", "123807.476000", "123807.479000", "123807.481000", "123807.484000", "123807.486000", "123807.489000", "123807.491000", "123807.493000", "123807.496000", "123807.498000", "123807.501000", "123807.503000", "123807.505000", "123807.508000", "123807.510000", "123847.464000", "123847.466000", "123847.469000", "123847.472000", "123847.474000", "123847.476000", "123847.479000", "123847.481000", "123847.484000", "123847.486000", "123847.489000", "123847.491000", "123847.493000", "123847.496000", "123847.498000", "123847.501000", "123847.503000", "123847.505000", "123847.508000", "123847.510000", "123927.464000", "123927.468000", "123927.471000", "123927.474000", "123927.477000", "123927.480000", "123927.483000", "123927.487000", "123927.490000", "123927.493000", "123927.496000", "123927.499000", "123927.502000", "123927.505000", "123927.509000", "123927.512000", "123927.515000", "123927.518000", "123927.521000", "123927.525000", "124007.464000", "124007.467000", "124007.469000", "124007.472000", "124007.474000", "124007.476000", "124007.479000", "124007.481000", "124007.484000", "124007.486000", "124007.489000", "124007.491000", "124007.493000", "124007.496000", "124007.498000", "124007.501000", "124007.503000", "124007.505000", "124007.508000", "124007.510000", "124047.463000", "124047.466000", "124047.469000", "124047.471000", "124047.474000", "124047.476000", "124047.479000", "124047.481000", "124047.484000", "124047.486000", "124047.489000", "124047.492000", "124047.494000", "124047.497000", "124047.500000", "124047.502000", "124047.504000", "124047.507000", "124047.509000", "124047.512000", "124127.464000", "124127.468000", "124127.471000", "124127.474000", "124127.477000", "124127.480000", "124127.484000", "124127.487000", "124127.490000", "124127.493000", "124127.496000", "124127.500000", "124127.503000", "124127.506000", "124127.509000", "124127.512000", "124127.515000", "124127.519000", "124127.522000", "124127.525000", "124207.464000", "124207.467000", "124207.470000", "124207.472000", "124207.475000", "124207.477000", "124207.480000", "124207.482000", "124207.485000", "124207.487000", "124207.490000", "124207.493000", "124207.495000", "124207.498000", "124207.501000", "124207.503000", "124207.506000", "124207.508000", "124207.511000", "124207.513000", "124247.463000", "124247.466000", "124247.469000", "124247.471000", "124247.474000", "124247.476000", "124247.479000", "124247.482000", "124247.484000", "124247.487000", "124247.489000", "124247.498000", "124247.500000", "124247.503000", "124247.506000", "124247.508000", "124247.511000", "124247.513000", "124247.516000", "124247.519000", "124327.464000", "124327.467000", "124327.470000", "124327.474000", "124327.477000", "124327.480000", "124327.483000", "124327.486000", "124327.489000", "124327.492000", "124327.496000", "124327.499000", "124327.502000", "124327.514000", "124327.517000", "124327.522000", "124327.525000", "124327.528000", "124327.531000", "124327.534000", "124407.463000", "124407.466000", "124407.469000", "124407.471000", "124407.474000", "124407.476000", "124407.479000", "124407.482000", "124407.484000", "124407.487000", "124407.489000", "124407.492000", "124407.494000", "124407.496000", "124407.499000", "124407.502000", "124407.504000", "124407.507000", "124407.509000", "124407.512000", "124432.522000", "124432.525000", "124432.528000", "124432.531000", "124432.534000", "124432.537000", "124432.541000", "124432.544000", "124432.547000", "124432.550000", "124432.553000", "124432.557000", "124432.566000"],
      "InstanceNumber": [1, 2, 3, 4, 5, 6, 7, 8, 9, 10, 11, 12, 13, 14, 15, 16, 17, 18, 19, 20, 21, 22, 23, 24, 25, 26, 27, 28, 29, 30, 31, 32, 33, 34, 35, 36, 37, 38, 39, 40, 41, 42, 43, 44, 45, 46, 47, 48, 49, 50, 51, 52, 53, 54, 55, 56, 57, 58, 59, 60, 61, 62, 63, 64, 65, 66, 67, 68, 69, 70, 71, 72, 73, 74, 75, 76, 77, 78, 79, 80, 81, 82, 83, 84, 85, 86, 87, 88, 89, 90, 91, 92, 93, 94, 95, 96, 97, 98, 99, 100, 101, 102, 103, 104, 105, 106, 107, 108, 109, 110, 111, 112, 113, 114, 115, 116, 117, 118, 119, 120, 121, 122, 123, 124, 125, 126, 127, 128, 129, 130, 131, 132, 133, 134, 135, 136, 137, 138, 139, 140, 141, 142, 143, 144, 145, 146, 147, 148, 149, 150, 151, 152, 153, 154, 155, 156, 157, 158, 159, 160, 161, 162, 163, 164, 165, 166, 167, 168, 169, 170, 171, 172, 173, 174, 175, 176, 177, 178, 179, 180, 181, 182, 183, 184, 185, 186, 187, 188, 189, 190, 191, 192, 193, 194, 195, 196, 197, 198, 199, 200, 201, 202, 203, 204, 205, 206, 207, 208, 209, 210, 211, 212, 213, 214, 215, 216, 217, 218, 219, 220, 221, 222, 223, 224, 225, 226, 227, 228, 229, 230, 231, 232, 233, 234, 235, 236, 237],
      "LargestImagePixelValue": [3093, 3140, 1900, 2100, 2659, 2414, 1892, 2249, 2549, 1879, 2185, 2616, 1959, 1906, 2186, 2670, 1940, 1889, 2160, 2593, 1910, 1890, 2432, 2446, 1925, 1874, 2298, 2872, 2083, 1935, 2023, 1929, 2318, 1879, 1910, 1980, 2733, 1904, 2062, 2905, 1875, 2191, 1886, 1886, 2726, 1891, 2341, 1861, 1955, 2847, 1862, 1896, 1879, 1847, 2280, 2018, 1892, 2150, 1850, 1894, 2742, 1901, 2516, 1852, 1883, 2765, 1886, 1940, 1882, 2129, 2312, 1892, 2160, 1890, 2533, 1870, 1947, 1893, 2362, 1857, 2276, 1861, 2840, 1898, 2285, 1901, 1974, 1896, 1858, 2571, 1837, 1890, 2512, 1871, 2668, 1852, 1916, 1879, 1884, 2566, 1847, 1893, 2804, 1899, 1959, 1878, 2280, 1869, 1883, 2884, 1895, 2157, 1876, 2015, 2468, 1841, 2198, 1987, 1849, 1918, 2563, 2395, 1909, 1903, 2802, 2549, 1870, 1890, 2614, 1899, 1906, 2077, 2574, 1891, 1867, 2009, 2629, 1897, 2084, 2228, 1897, 1874, 2306, 1995, 1878, 2717, 1901, 1908, 2791, 1911, 1895, 2441, 1866, 2472, 2235, 1869, 2301, 1954, 1909, 2741, 1853, 2338, 2629, 1857, 2197, 1876, 2621, 1858, 2054, 1885, 2128, 2628, 1866, 2095, 1919, 1856, 2026, 2191, 2043, 1914, 2456, 2131, 2449, 2536, 2406, 1971, 1946, 1860, 1903, 2325, 1962, 1968, 2541, 1954, 1902, 2726, 1909, 1877, 2676, 1964, 1863, 1953, 1938, 1865, 2506, 1942, 1885, 1932, 1955, 1962, 2863, 1957, 1865, 2375, 1906, 2809, 1903, 1885, 2286, 1949, 1893, 2425, 1950, 1891, 2221, 2652, 1937, 2426, 1862, 1988, 2284, 1879, 2006, 1914, 2162, 2807, 1876],
      "WindowCenter": [713.0, 712.0, 708.0, 709.0, 709.0, 709.0, 707.0, 708.0, 710.0, 708.0, 708.0, 709.0, 709.0, 708.0, 708.0, 710.0, 708.0, 708.0, 709.0, 710.0, 708.0, 708.0, 710.0, 709.0, 708.0, 708.0, 711.0, 711.0, 709.0, 708.0, 708.0, 707.0, 709.0, 708.0, 708.0, 708.0, 710.0, 708.0, 709.0, 710.0, 707.0, 708.0, 708.0, 708.0, 710.0, 710.0, 710.0, 709.0, 709.0, 710.0, 708.0, 709.0, 709.0, 708.0, 709.0, 709.0, 707.0, 709.0, 708.0, 708.0, 711.0, 709.0, 709.0, 708.0, 708.0, 710.0, 708.0, 708.0, 708.0, 709.0, 710.0, 708.0, 710.0, 708.0, 709.0, 708.0, 709.0, 709.0, 710.0, 708.0, 709.0, 709.0, 711.0, 710.0, 709.0, 708.0, 709.0, 709.0, 709.0, 710.0, 708.0, 708.0, 710.0, 708.0, 709.0, 707.0, 708.0, 708.0, 708.0, 709.0, 708.0, 708.0, 710.0, 707.0, 708.0, 709.0, 709.0, 708.0, 709.0, 711.0, 708.0, 709.0, 709.0, 708.0, 710.0, 707.0, 708.0, 708.0, 708.0, 709.0, 710.0, 710.0, 708.0, 708.0, 710.0, 709.0, 707.0, 707.0, 709.0, 709.0, 707.0, 708.0, 709.0, 708.0, 707.0, 707.0, 710.0, 708.0, 708.0, 709.0, 708.0, 708.0, 709.0, 709.0, 708.0, 710.0, 709.0, 708.0, 710.0, 708.0, 709.0, 710.0, 708.0, 709.0, 709.0, 708.0, 710.0, 709.0, 709.0, 710.0, 708.0, 710.0, 710.0, 708.0, 709.0, 708.0, 710.0, 709.0, 709.0, 708.0, 708.0, 709.0, 709.0, 709.0, 708.0, 707.0, 708.0, 708.0, 710.0, 709.0, 710.0, 708.0, 709.0, 709.0, 708.0, 707.0, 707.0, 707.0, 707.0, 708.0, 708.0, 709.0, 710.0, 708.0, 708.0, 709.0, 707.0, 707.0, 709.0, 707.0, 707.0, 708.0, 708.0, 709.0, 710.0, 708.0, 708.0, 709.0, 709.0, 709.0, 712.0, 707.0, 707.0, 708.0, 708.0, 709.0, 707.0, 707.0, 708.0, 708.0, 707.0, 708.0, 707.0, 707.0, 709.0, 710.0, 707.0, 709.0, 708.0, 708.0, 709.0, 707.0, 708.0, 708.0, 709.0, 710.0, 707.0],
      "WindowWidth": [1591.0, 1587.0, 1572.0, 1574.0, 1577.0, 1575.0, 1569.0, 1574.0, 1578.0, 1570.0, 1572.0, 1576.0, 1573.0, 1571.0, 1573.0, 1578.0, 1570.0, 1570.0, 1575.0, 1579.0, 1572.0, 1572.0, 1578.0, 1577.0, 1572.0, 1573.0, 1580.0, 1583.0, 1574.0, 1571.0, 1571.0, 1570.0, 1575.0, 1573.0, 1572.0, 1572.0, 1579.0, 1571.0, 1573.0, 1580.0, 1570.0, 1571.0, 1571.0, 1571.0, 1579.0, 1575.0, 1578.0, 1574.0, 1574.0, 1581.0, 1571.0, 1573.0, 1574.0, 1571.0, 1575.0, 1573.0, 1569.0, 1575.0, 1572.0, 1571.0, 1581.0, 1573.0, 1577.0, 1571.0, 1570.0, 1580.0, 1571.0, 1573.0, 1573.0, 1575.0, 1577.0, 1571.0, 1577.0, 1572.0, 1576.0, 1571.0, 1574.0, 1575.0, 1577.0, 1572.0, 1576.0, 1573.0, 1582.0, 1575.0, 1577.0, 1571.0, 1573.0, 1575.0, 1575.0, 1578.0, 1571.0, 1571.0, 1578.0, 1571.0, 1577.0, 1570.0, 1572.0, 1572.0, 1570.0, 1574.0, 1570.0, 1570.0, 1578.0, 1570.0, 1572.0, 1573.0, 1575.0, 1571.0, 1573.0, 1581.0, 1572.0, 1574.0, 1573.0, 1572.0, 1577.0, 1570.0, 1573.0, 1571.0, 1571.0, 1574.0, 1578.0, 1577.0, 1572.0, 1572.0, 1580.0, 1576.0, 1568.0, 1568.0, 1576.0, 1573.0, 1569.0, 1572.0, 1576.0, 1571.0, 1568.0, 1570.0, 1578.0, 1572.0, 1571.0, 1574.0, 1572.0, 1571.0, 1576.0, 1574.0, 1572.0, 1578.0, 1573.0, 1572.0, 1579.0, 1570.0, 1573.0, 1578.0, 1572.0, 1576.0, 1573.0, 1571.0, 1579.0, 1575.0, 1572.0, 1579.0, 1571.0, 1576.0, 1577.0, 1570.0, 1576.0, 1572.0, 1578.0, 1573.0, 1575.0, 1571.0, 1571.0, 1577.0, 1572.0, 1574.0, 1572.0, 1570.0, 1572.0, 1572.0, 1577.0, 1576.0, 1578.0, 1573.0, 1575.0, 1576.0, 1573.0, 1569.0, 1569.0, 1567.0, 1568.0, 1573.0, 1572.0, 1573.0, 1578.0, 1572.0, 1571.0, 1577.0, 1568.0, 1569.0, 1577.0, 1569.0, 1567.0, 1571.0, 1573.0, 1574.0, 1578.0, 1572.0, 1572.0, 1575.0, 1574.0, 1574.0, 1584.0, 1570.0, 1566.0, 1572.0, 1570.0, 1577.0, 1569.0, 1567.0, 1573.0, 1570.0, 1569.0, 1572.0, 1569.0, 1569.0, 1573.0, 1577.0, 1569.0, 1575.0, 1571.0, 1572.0, 1574.0, 1569.0, 1571.0, 1571.0, 1574.0, 1579.0, 1569.0]
    },
    "slices": {}
  }
}