{
  "AcquisitionMatrixPE": 70,
  "AcquisitionNumber": 1,
  "AcquisitionTime": "11:37:21.635000",
  "BandwidthPerPixelPhaseEncode": 38.873,
  "BaseResolution": 70,
  "BodyPartExamined": "HEAD",
  "ConsistencyInfo": "N4_VE11B_LATEST_20150530",
  "ConversionSoftware": "dcm2niix",
  "ConversionSoftwareVersion": "v1.0.20190410  GCC6.3.0",
  "DerivedVendorReportedEchoSpacing": 0.000489996,
  "DeviceSerialNumber": "66088",
  "DwellTime": 2.9e-06,
  "EchoTime": 0.03,
  "EchoTrainLength": 53,
  "EffectiveEchoSpacing": 0.000367497,
  "FlipAngle": 90,
  "ImageOrientationPatientDICOM": [0.999685, -0.000377934, 0.0250804, 0.00872414, 0.942699, -0.333532],
  "ImageType": [
    "ORIGINAL",
    "PRIMARY",
    "M",
    "ND",
    "NORM",
    "MOSAIC"
],
  "ImagingFrequency": 123.191,
  "InPlanePhaseEncodingDirectionDICOM": "COL",
  "InstitutionAddress": "Street_StreetNo_City_District_IR_ZIP",
  "InstitutionName": "NBML",
  "InstitutionalDepartmentName": "Department",
  "MRAcquisitionType": "2D",
  "MagneticFieldStrength": 3,
  "Manufacturer": "Siemens",
  "ManufacturersModelName": "Prisma",
  "Modality": "MR",
  "ParallelReductionFactorInPlane": 2,
  "PartialFourier": 1,
  "PatientPosition": "HFS",
  "PercentPhaseFOV": 100,
  "PhaseEncodingDirection": "j-",
  "PhaseEncodingSteps": 105,
  "PhaseOversampling": 0.5,
  "PhaseResolution": 1,
  "PixelBandwidth": 2465,
  "ProcedureStepDescription": "NBML_Project_Dr_Khaligh",
  "ProtocolName": "ep2d_p2_Task_3.5_measurment:237",
  "PulseSequenceDetails": "%SiemensSeq%_ep2d_pace",
  "ReceiveCoilActiveElements": "HC1-7",
  "ReceiveCoilName": "HeadNeck_64",
  "ReconMatrixPE": 70,
  "RefLinesPE": 24,
  "RepetitionTime": 2,
  "SAR": 0.0997714,
  "ScanOptions": "FS",
  "ScanningSequence": "EP",
  "SequenceName": "_epfid2d1_70",
  "SequenceVariant": "SK_OSP",
  "SeriesDescription": "ep2d_p2_Task_3.5_measurment:237",
  "SeriesNumber": 10,
  "ShimSetting": [2605, -4465, -3241, 506, 16, 112, -26, 11],
  "SliceThickness": 3.5,
  "SliceTiming": [0.99, 0, 1.05, 0.06, 1.1075, 0.1175, 1.165, 0.175, 1.225, 0.235, 1.2825, 0.2925, 1.34, 0.35, 1.3975, 0.4075, 1.4575, 0.4675, 1.515, 0.525, 1.5725, 0.5825, 1.6325, 0.6425, 1.69, 0.7, 1.7475, 0.7575, 1.805, 0.815, 1.865, 0.875, 1.9225, 0.9325],
  "SoftwareVersions": "syngo_MR_E11",
  "SpacingBetweenSlices": 3.85,
  "StationName": "AWP66088",
  "TaskName": "categorySelectivity",
  "TotalReadoutTime": 0.0253573,
  "TxRefAmp": 222.708,
  "dcmmeta_affine": [
    [-3.5417425632476807, 0.030908390879631042, 0.09054140001535416, 120.28458404541016],
    [0.0013389670057222247, 3.33984637260437, -1.2845348119735718, -87.32678985595703],
    [0.08885643631219864, 1.1816545724868774, 3.628260374069214, -82.14836120605469],
    [0.0, 0.0, 0.0, 1.0]
],
  "dcmmeta_reorient_transform": [
    [0.0, -1.0, 0.0, 69.0],
    [1.0, 0.0, 0.0, 0.0],
    [0.0, 0.0, 1.0, 0.0],
    [0.0, 0.0, 0.0, 1.0]
],
  "dcmmeta_shape": [70, 70, 34, 237],
  "dcmmeta_slice_dim": 2,
  "dcmmeta_version": 0.6,
  "global": {
    "const": {
      "AccessionNumber": "BRZ",
      "AcquisitionMatrix": [70, 0, 0, 70],
      "AngioFlag": "N",
      "BitsAllocated": 16,
      "BitsStored": 12,
      "BodyPartExamined": "HEAD",
      "Columns": 420,
      "EchoNumbers": 1,
      "EchoTime": 30.0,
      "EchoTrainLength": 53,
      "FlipAngle": 90.0,
      "HighBit": 11,
      "ImageOrientationPatient": [0.99968536470255, -0.0003779342299, 0.02508044587437, 0.00872414271927, 0.94269857385881, -0.3335315400054],
      "ImagePositionPatient": [-747.63116263894, -727.36141021391, 190.62548658704],
      "ImageType": [
        "ORIGINAL",
        "PRIMARY",
        "M",
        "ND",
        "NORM",
        "MOSAIC"
],
      "ImagedNucleus": "1H",
      "ImagingFrequency": 123.19118,
      "InPlanePhaseEncodingDirection": "COL",
      "MRAcquisitionType": "2D",
      "MagneticFieldStrength": 3.0,
      "Manufacturer": "SIEMENS",
      "ManufacturerModelName": "Prisma",
      "Modality": "MR",
      "NumberOfAverages": 1.0,
      "NumberOfPhaseEncodingSteps": 105,
      "PercentPhaseFieldOfView": 100.0,
      "PercentSampling": 100.0,
      "PerformedProcedureStepStartTime": "102435.176000",
      "PhotometricInterpretation": "MONOCHROME2",
      "PixelBandwidth": 2465.0,
      "PixelRepresentation": 0,
      "PixelSpacing": [3.542857170105, 3.542857170105],
      "ProtocolName": "ep2d_p2_Task_3.5_measurment:237",
      "RepetitionTime": 2000.0,
      "Rows": 420,
      "SAR": 0.09977141773887,
      "SamplesPerPixel": 1,
      "ScanOptions": "FS",
      "ScanningSequence": "EP",
      "SequenceName": "*epfid2d1_70",
      "SequenceVariant": [
        "SK",
        "OSP"
],
      "SeriesDescription": "ep2d_p2_Task_3.5_measurment:237",
      "SeriesNumber": 10,
      "SeriesTime": "113805.562000",
      "SliceLocation": -45.452102698653,
      "SliceThickness": 3.5,
      "SmallestImagePixelValue": 0,
      "SoftwareVersions": "syngo MR E11",
      "SpacingBetweenSlices": 3.8500000221207,
      "SpecificCharacterSet": "ISO_IR 100",
      "StudyID": "1",
      "StudyTime": "102435.130000",
      "TransmitCoilName": "Body",
      "VariableFlipAngleFlag": "N",
      "WindowCenterWidthExplanation": "Algo1",
      "dBdt": 0.0},
    "slices": {}
  },
  "time": {
    "samples": {
      "AcquisitionNumber": [1, 2, 3, 4, 5, 6, 7, 8, 9, 10, 11, 12, 13, 14, 15, 16, 17, 18, 19, 20, 21, 22, 23, 24, 25, 26, 27, 28, 29, 30, 31, 32, 33, 34, 35, 36, 37, 38, 39, 40, 41, 42, 43, 44, 45, 46, 47, 48, 49, 50, 51, 52, 53, 54, 55, 56, 57, 58, 59, 60, 61, 62, 63, 64, 65, 66, 67, 68, 69, 70, 71, 72, 73, 74, 75, 76, 77, 78, 79, 80, 81, 82, 83, 84, 85, 86, 87, 88, 89, 90, 91, 92, 93, 94, 95, 96, 97, 98, 99, 100, 101, 102, 103, 104, 105, 106, 107, 108, 109, 110, 111, 112, 113, 114, 115, 116, 117, 118, 119, 120, 121, 122, 123, 124, 125, 126, 127, 128, 129, 130, 131, 132, 133, 134, 135, 136, 137, 138, 139, 140, 141, 142, 143, 144, 145, 146, 147, 148, 149, 150, 151, 152, 153, 154, 155, 156, 157, 158, 159, 160, 161, 162, 163, 164, 165, 166, 167, 168, 169, 170, 171, 172, 173, 174, 175, 176, 177, 178, 179, 180, 181, 182, 183, 184, 185, 186, 187, 188, 189, 190, 191, 192, 193, 194, 195, 196, 197, 198, 199, 200, 201, 202, 203, 204, 205, 206, 207, 208, 209, 210, 211, 212, 213, 214, 215, 216, 217, 218, 219, 220, 221, 222, 223, 224, 225, 226, 227, 228, 229, 230, 231, 232, 233, 234, 235, 236, 237],
      "AcquisitionTime": ["113721.635000", "113723.635000", "113725.635000", "113727.635000", "113729.635000", "113731.635000", "113733.635000", "113735.635000", "113737.635000", "113739.635000", "113741.635000", "113743.635000", "113745.635000", "113747.635000", "113749.635000", "113751.635000", "113753.635000", "113755.635000", "113757.635000", "113759.635000", "113801.635000", "113803.635000", "113805.635000", "113807.635000", "113809.635000", "113811.635000", "113813.635000", "113815.635000", "113817.635000", "113819.635000", "113821.635000", "113823.635000", "113825.635000", "113827.635000", "113829.635000", "113831.635000", "113833.635000", "113835.635000", "113837.635000", "113839.635000", "113841.635000", "113843.635000", "113845.635000", "113847.635000", "113849.635000", "113851.635000", "113853.635000", "113855.635000", "113857.635000", "113859.635000", "113901.635000", "113903.635000", "113905.635000", "113907.635000", "113909.635000", "113911.635000", "113913.635000", "113915.635000", "113917.635000", "113919.635000", "113921.635000", "113923.635000", "113925.635000", "113927.635000", "113929.635000", "113931.635000", "113933.635000", "113935.635000", "113937.635000", "113939.635000", "113941.635000", "113943.635000", "113945.635000", "113947.635000", "113949.635000", "113951.635000", "113953.635000", "113955.635000", "113957.635000", "113959.635000", "114001.635000", "114003.635000", "114005.635000", "114007.635000", "114009.635000", "114011.635000", "114013.635000", "114015.635000", "114017.635000", "114019.635000", "114021.635000", "114023.635000", "114025.635000", "114027.635000", "114029.635000", "114031.635000", "114033.635000", "114035.635000", "114037.635000", "114039.635000", "114041.635000", "114043.635000", "114045.635000", "114047.635000", "114049.635000", "114051.635000", "114053.635000", "114055.635000", "114057.635000", "114059.635000", "114101.635000", "114103.635000", "114105.635000", "114107.635000", "114109.635000", "114111.635000", "114113.635000", "114115.635000", "114117.635000", "114119.635000", "114121.635000", "114123.635000", "114125.635000", "114127.635000", "114129.635000", "114131.635000", "114133.635000", "114135.635000", "114137.635000", "114139.635000", "114141.635000", "114143.635000", "114145.635000", "114147.635000", "114149.635000", "114151.635000", "114153.635000", "114155.635000", "114157.635000", "114159.635000", "114201.635000", "114203.635000", "114205.635000", "114207.635000", "114209.635000", "114211.635000", "114213.635000", "114215.635000", "114217.635000", "114219.635000", "114221.635000", "114223.635000", "114225.635000", "114227.635000", "114229.635000", "114231.635000", "114233.635000", "114235.635000", "114237.635000", "114239.635000", "114241.635000", "114243.635000", "114245.635000", "114247.635000", "114249.635000", "114251.635000", "114253.635000", "114255.635000", "114257.635000", "114259.635000", "114301.635000", "114303.635000", "114305.635000", "114307.635000", "114309.635000", "114311.635000", "114313.635000", "114315.635000", "114317.635000", "114319.635000", "114321.635000", "114323.635000", "114325.635000", "114327.635000", "114329.635000", "114331.635000", "114333.635000", "114335.635000", "114337.635000", "114339.635000", "114341.635000", "114343.635000", "114345.635000", "114347.635000", "114349.635000", "114351.635000", "114353.635000", "114355.635000", "114357.635000", "114359.635000", "114401.635000", "114403.635000", "114405.635000", "114407.635000", "114409.635000", "114411.635000", "114413.635000", "114415.635000", "114417.635000", "114419.635000", "114421.635000", "114423.635000", "114425.635000", "114427.635000", "114429.635000", "114431.635000", "114433.635000", "114435.635000", "114437.635000", "114439.635000", "114441.635000", "114443.635000", "114445.635000", "114447.635000", "114449.635000", "114451.635000", "114453.635000", "114455.635000", "114457.635000", "114459.635000", "114501.635000", "114503.635000", "114505.635000", "114507.635000", "114509.635000", "114511.635000", "114513.635000"],
      "ContentTime": ["113805.566000", "113805.570000", "113805.573000", "113805.576000", "113805.579000", "113805.582000", "113805.586000", "113805.589000", "113805.592000", "113805.595000", "113805.598000", "113805.601000", "113805.604000", "113805.607000", "113805.610000", "113805.613000", "113805.617000", "113805.620000", "113805.623000", "113805.627000", "113805.630000", "113805.633000", "113845.559000", "113845.561000", "113845.564000", "113845.566000", "113845.569000", "113845.571000", "113845.573000", "113845.576000", "113845.578000", "113845.581000", "113845.583000", "113845.585000", "113845.588000", "113845.590000", "113845.592000", "113845.595000", "113845.597000", "113845.600000", "113845.602000", "113845.604000", "113925.559000", "113925.561000", "113925.564000", "113925.566000", "113925.569000", "113925.571000", "113925.573000", "113925.576000", "113925.578000", "113925.581000", "113925.583000", "113925.586000", "113925.588000", "113925.590000", "113925.593000", "113925.595000", "113925.598000", "113925.600000", "113925.610000", "113925.613000", "114005.558000", "114005.561000", "114005.564000", "114005.567000", "114005.570000", "114005.573000", "114005.576000", "114005.580000", "114005.583000", "114005.586000", "114005.589000", "114005.592000", "114005.595000", "114005.599000", "114005.602000", "114005.605000", "114005.608000", "114005.611000", "114005.614000", "114005.617000", "114045.558000", "114045.561000", "114045.563000", "114045.566000", "114045.568000", "114045.571000", "114045.574000", "114045.576000", "114045.578000", "114045.581000", "114045.584000", "114045.586000", "114045.596000", "114045.599000", "114045.601000", "114045.604000", "114045.606000", "114045.609000", "114045.611000", "114045.613000", "114125.558000", "114125.561000", "114125.564000", "114125.566000", "114125.569000", "114125.571000", "114125.574000", "114125.576000", "114125.579000", "114125.581000", "114125.583000", "114125.586000", "114125.588000", "114125.591000", "114125.593000", "114125.596000", "114125.598000", "114125.601000", "114125.603000", "114125.606000", "114205.558000", "114205.561000", "114205.565000", "114205.568000", "114205.571000", "114205.574000", "114205.577000", "114205.581000", "114205.584000", "114205.587000", "114205.590000", "114205.593000", "114205.596000", "114205.599000", "114205.603000", "114205.606000", "114205.609000", "114205.612000", "114205.615000", "114205.618000", "114245.557000", "114245.560000", "114245.563000", "114245.565000", "114245.567000", "114245.570000", "114245.572000", "114245.575000", "114245.577000", "114245.579000", "114245.582000", "114245.584000", "114245.587000", "114245.589000", "114245.591000", "114245.594000", "114245.596000", "114245.598000", "114245.601000", "114245.603000", "114325.559000", "114325.562000", "114325.564000", "114325.567000", "114325.569000", "114325.572000", "114325.574000", "114325.576000", "114325.579000", "114325.581000", "114325.584000", "114325.586000", "114325.588000", "114325.591000", "114325.593000", "114325.595000", "114325.598000", "114325.600000", "114325.603000", "114325.605000", "114405.559000", "114405.563000", "114405.566000", "114405.569000", "114405.572000", "114405.575000", "114405.578000", "114405.581000", "114405.585000", "114405.588000", "114405.591000", "114405.594000", "114405.597000", "114405.601000", "114405.619000", "114405.623000", "114405.626000", "114405.629000", "114405.632000", "114405.635000", "114445.557000", "114445.560000", "114445.563000", "114445.565000", "114445.567000", "114445.570000", "114445.572000", "114445.575000", "114445.577000", "114445.580000", "114445.582000", "114445.584000", "114445.587000", "114445.589000", "114445.592000", "114445.594000", "114445.597000", "114445.599000", "114445.601000", "114445.604000", "114514.814000", "114514.817000", "114514.819000", "114514.822000", "114514.825000", "114514.827000", "114514.830000", "114514.833000", "114514.836000", "114514.839000", "114514.847000", "114514.853000", "114514.856000", "114514.859000", "114514.862000"],
      "InstanceCreationTime": ["113805.566000", "113805.570000", "113805.573000", "113805.576000", "113805.579000", "113805.582000", "113805.586000", "113805.589000", "113805.592000", "113805.595000", "113805.598000", "113805.601000", "113805.604000", "113805.607000", "113805.610000", "113805.613000", "113805.617000", "113805.620000", "113805.623000", "113805.627000", "113805.630000", "113805.633000", "113845.559000", "113845.561000", "113845.564000", "113845.566000", "113845.569000", "113845.571000", "113845.573000", "113845.576000", "113845.578000", "113845.581000", "113845.583000", "113845.585000", "113845.588000", "113845.590000", "113845.592000", "113845.595000", "113845.597000", "113845.600000", "113845.602000", "113845.604000", "113925.559000", "113925.561000", "113925.564000", "113925.566000", "113925.569000", "113925.571000", "113925.573000", "113925.576000", "113925.578000", "113925.581000", "113925.583000", "113925.586000", "113925.588000", "113925.590000", "113925.593000", "113925.595000", "113925.598000", "113925.600000", "113925.610000", "113925.613000", "114005.558000", "114005.561000", "114005.564000", "114005.567000", "114005.570000", "114005.573000", "114005.576000", "114005.580000", "114005.583000", "114005.586000", "114005.589000", "114005.592000", "114005.595000", "114005.599000", "114005.602000", "114005.605000", "114005.608000", "114005.611000", "114005.614000", "114005.617000", "114045.558000", "114045.561000", "114045.563000", "114045.566000", "114045.568000", "114045.571000", "114045.574000", "114045.576000", "114045.578000", "114045.581000", "114045.584000", "114045.586000", "114045.596000", "114045.599000", "114045.601000", "114045.604000", "114045.606000", "114045.609000", "114045.611000", "114045.613000", "114125.558000", "114125.561000", "114125.564000", "114125.566000", "114125.569000", "114125.571000", "114125.574000", "114125.576000", "114125.579000", "114125.581000", "114125.583000", "114125.586000", "114125.588000", "114125.591000", "114125.593000", "114125.596000", "114125.598000", "114125.601000", "114125.603000", "114125.606000", "114205.558000", "114205.561000", "114205.565000", "114205.568000", "114205.571000", "114205.574000", "114205.577000", "114205.581000", "114205.584000", "114205.587000", "114205.590000", "114205.593000", "114205.596000", "114205.599000", "114205.603000", "114205.606000", "114205.609000", "114205.612000", "114205.615000", "114205.618000", "114245.557000", "114245.560000", "114245.563000", "114245.565000", "114245.567000", "114245.570000", "114245.572000", "114245.575000", "114245.577000", "114245.579000", "114245.582000", "114245.584000", "114245.587000", "114245.589000", "114245.591000", "114245.594000", "114245.596000", "114245.598000", "114245.601000", "114245.603000", "114325.559000", "114325.562000", "114325.564000", "114325.567000", "114325.569000", "114325.572000", "114325.574000", "114325.576000", "114325.579000", "114325.581000", "114325.584000", "114325.586000", "114325.588000", "114325.591000", "114325.593000", "114325.595000", "114325.598000", "114325.600000", "114325.603000", "114325.605000", "114405.559000", "114405.563000", "114405.566000", "114405.569000", "114405.572000", "114405.575000", "114405.578000", "114405.581000", "114405.585000", "114405.588000", "114405.591000", "114405.594000", "114405.597000", "114405.601000", "114405.619000", "114405.623000", "114405.626000", "114405.629000", "114405.632000", "114405.635000", "114445.557000", "114445.560000", "114445.563000", "114445.565000", "114445.567000", "114445.570000", "114445.572000", "114445.575000", "114445.577000", "114445.580000", "114445.582000", "114445.584000", "114445.587000", "114445.589000", "114445.592000", "114445.594000", "114445.597000", "114445.599000", "114445.601000", "114445.604000", "114514.814000", "114514.817000", "114514.819000", "114514.822000", "114514.825000", "114514.827000", "114514.830000", "114514.833000", "114514.836000", "114514.839000", "114514.847000", "114514.853000", "114514.856000", "114514.859000", "114514.862000"],
      "InstanceNumber": [1, 2, 3, 4, 5, 6, 7, 8, 9, 10, 11, 12, 13, 14, 15, 16, 17, 18, 19, 20, 21, 22, 23, 24, 25, 26, 27, 28, 29, 30, 31, 32, 33, 34, 35, 36, 37, 38, 39, 40, 41, 42, 43, 44, 45, 46, 47, 48, 49, 50, 51, 52, 53, 54, 55, 56, 57, 58, 59, 60, 61, 62, 63, 64, 65, 66, 67, 68, 69, 70, 71, 72, 73, 74, 75, 76, 77, 78, 79, 80, 81, 82, 83, 84, 85, 86, 87, 88, 89, 90, 91, 92, 93, 94, 95, 96, 97, 98, 99, 100, 101, 102, 103, 104, 105, 106, 107, 108, 109, 110, 111, 112, 113, 114, 115, 116, 117, 118, 119, 120, 121, 122, 123, 124, 125, 126, 127, 128, 129, 130, 131, 132, 133, 134, 135, 136, 137, 138, 139, 140, 141, 142, 143, 144, 145, 146, 147, 148, 149, 150, 151, 152, 153, 154, 155, 156, 157, 158, 159, 160, 161, 162, 163, 164, 165, 166, 167, 168, 169, 170, 171, 172, 173, 174, 175, 176, 177, 178, 179, 180, 181, 182, 183, 184, 185, 186, 187, 188, 189, 190, 191, 192, 193, 194, 195, 196, 197, 198, 199, 200, 201, 202, 203, 204, 205, 206, 207, 208, 209, 210, 211, 212, 213, 214, 215, 216, 217, 218, 219, 220, 221, 222, 223, 224, 225, 226, 227, 228, 229, 230, 231, 232, 233, 234, 235, 236, 237],
      "LargestImagePixelValue": [2329, 2165, 2961, 2106, 2672, 1956, 1996, 2455, 2083, 2211, 2005, 2285, 2737, 1981, 2057, 1940, 2507, 2055, 2581, 2029, 2541, 1998, 2015, 2946, 1998, 2163, 2024, 1952, 2737, 2125, 2316, 1951, 2447, 2066, 2334, 1934, 1950, 2592, 2033, 2054, 2603, 2408, 2044, 1959, 2371, 2474, 2135, 2540, 1942, 1927, 2153, 2146, 2105, 2281, 2236, 2140, 2560, 2129, 2197, 2480, 1971, 2095, 2116, 1947, 2656, 2034, 2746, 2029, 2345, 1963, 2631, 2027, 2286, 2023, 2036, 2597, 1991, 2867, 2157, 2305, 2023, 2597, 2112, 2391, 2102, 2077, 2448, 2575, 2156, 2064, 1995, 3003, 2124, 2133, 2016, 2552, 2320, 2218, 2358, 2586, 2676, 3256, 2161, 2183, 2066, 2611, 2071, 3039, 2061, 2055, 2036, 3214, 2095, 2443, 2159, 2419, 2139, 3119, 2161, 2102, 2062, 2991, 2186, 2102, 2729, 2087, 2007, 1999, 2661, 3053, 2115, 2836, 2087, 2780, 2155, 2472, 2160, 2255, 2036, 3110, 2037, 2508, 1969, 3014, 2100, 2359, 2559, 2317, 2595, 2097, 2085, 3045, 2194, 2286, 1981, 2162, 2236, 3281, 2200, 2825, 3199, 2667, 2163, 2088, 2142, 2114, 3110, 2288, 2104, 2367, 2092, 2071, 3183, 2202, 2673, 2207, 2579, 2253, 2137, 2126, 3297, 2146, 2094, 2241, 2119, 2860, 2082, 2120, 2119, 3189, 2779, 2038, 2048, 2454, 2716, 3029, 2358, 3126, 2108, 2282, 2482, 3239, 2271, 2142, 2060, 2648, 2992, 2650, 2070, 2175, 3295, 3313, 2131, 2461, 2182, 2149, 2144, 2217, 2394, 2218, 2268, 2370, 3227, 2164, 2087, 2030, 2739, 2891, 2209, 2198, 2685, 3171, 2200, 2101, 2267, 2173, 2296],
      "WindowCenter": [769.0, 767.0, 768.0, 767.0, 767.0, 766.0, 767.0, 766.0, 765.0, 766.0, 767.0, 767.0, 767.0, 766.0, 766.0, 767.0, 768.0, 768.0, 768.0, 767.0, 767.0, 767.0, 767.0, 768.0, 767.0, 767.0, 767.0, 768.0, 768.0, 766.0, 767.0, 767.0, 768.0, 767.0, 767.0, 767.0, 767.0, 768.0, 767.0, 768.0, 768.0, 767.0, 766.0, 766.0, 767.0, 768.0, 768.0, 767.0, 766.0, 767.0, 769.0, 768.0, 768.0, 768.0, 768.0, 768.0, 768.0, 767.0, 768.0, 767.0, 766.0, 766.0, 767.0, 768.0, 769.0, 768.0, 768.0, 767.0, 767.0, 767.0, 768.0, 767.0, 767.0, 767.0, 768.0, 769.0, 768.0, 769.0, 767.0, 767.0, 767.0, 768.0, 767.0, 767.0, 767.0, 768.0, 768.0, 768.0, 767.0, 767.0, 768.0, 768.0, 767.0, 768.0, 768.0, 768.0, 767.0, 768.0, 770.0, 769.0, 768.0, 767.0, 766.0, 766.0, 767.0, 768.0, 767.0, 767.0, 766.0, 767.0, 768.0, 768.0, 766.0, 766.0, 767.0, 768.0, 768.0, 769.0, 767.0, 767.0, 768.0, 769.0, 768.0, 767.0, 767.0, 766.0, 768.0, 769.0, 769.0, 768.0, 767.0, 767.0, 767.0, 767.0, 766.0, 767.0, 767.0, 769.0, 768.0, 768.0, 767.0, 768.0, 768.0, 769.0, 768.0, 767.0, 767.0, 767.0, 767.0, 767.0, 767.0, 768.0, 767.0, 767.0, 768.0, 769.0, 769.0, 769.0, 767.0, 767.0, 766.0, 765.0, 765.0, 766.0, 767.0, 767.0, 768.0, 766.0, 766.0, 767.0, 767.0, 767.0, 768.0, 767.0, 768.0, 768.0, 768.0, 768.0, 767.0, 768.0, 769.0, 767.0, 767.0, 768.0, 768.0, 768.0, 767.0, 768.0, 769.0, 768.0, 768.0, 767.0, 768.0, 769.0, 769.0, 768.0, 767.0, 768.0, 767.0, 768.0, 768.0, 768.0, 767.0, 767.0, 768.0, 769.0, 769.0, 768.0, 768.0, 768.0, 769.0, 767.0, 764.0, 765.0, 764.0, 765.0, 766.0, 767.0, 767.0, 767.0, 767.0, 768.0, 769.0, 767.0, 767.0, 768.0, 769.0, 769.0, 768.0, 768.0, 769.0, 769.0, 767.0, 768.0, 768.0, 768.0, 768.0],
      "WindowWidth": [1740.0, 1735.0, 1744.0, 1734.0, 1738.0, 1731.0, 1732.0, 1733.0, 1729.0, 1733.0, 1735.0, 1735.0, 1736.0, 1730.0, 1733.0, 1734.0, 1740.0, 1737.0, 1739.0, 1733.0, 1737.0, 1734.0, 1736.0, 1743.0, 1733.0, 1735.0, 1735.0, 1737.0, 1740.0, 1732.0, 1735.0, 1735.0, 1739.0, 1735.0, 1735.0, 1734.0, 1735.0, 1742.0, 1735.0, 1736.0, 1740.0, 1736.0, 1731.0, 1732.0, 1737.0, 1739.0, 1736.0, 1738.0, 1732.0, 1735.0, 1741.0, 1739.0, 1737.0, 1738.0, 1738.0, 1737.0, 1739.0, 1736.0, 1737.0, 1737.0, 1732.0, 1732.0, 1735.0, 1738.0, 1744.0, 1736.0, 1740.0, 1733.0, 1736.0, 1735.0, 1741.0, 1735.0, 1736.0, 1735.0, 1737.0, 1744.0, 1738.0, 1742.0, 1735.0, 1735.0, 1734.0, 1742.0, 1735.0, 1735.0, 1735.0, 1738.0, 1741.0, 1740.0, 1735.0, 1735.0, 1737.0, 1743.0, 1735.0, 1737.0, 1737.0, 1740.0, 1737.0, 1738.0, 1745.0, 1743.0, 1742.0, 1741.0, 1729.0, 1732.0, 1735.0, 1740.0, 1732.0, 1739.0, 1732.0, 1734.0, 1737.0, 1744.0, 1731.0, 1734.0, 1736.0, 1741.0, 1737.0, 1744.0, 1733.0, 1734.0, 1737.0, 1747.0, 1738.0, 1733.0, 1737.0, 1733.0, 1737.0, 1740.0, 1743.0, 1744.0, 1734.0, 1739.0, 1734.0, 1739.0, 1732.0, 1736.0, 1736.0, 1742.0, 1738.0, 1743.0, 1733.0, 1739.0, 1736.0, 1744.0, 1737.0, 1737.0, 1738.0, 1735.0, 1737.0, 1735.0, 1734.0, 1741.0, 1734.0, 1735.0, 1738.0, 1743.0, 1742.0, 1745.0, 1736.0, 1739.0, 1735.0, 1730.0, 1727.0, 1730.0, 1735.0, 1736.0, 1741.0, 1731.0, 1729.0, 1734.0, 1735.0, 1736.0, 1743.0, 1734.0, 1739.0, 1737.0, 1741.0, 1737.0, 1737.0, 1738.0, 1747.0, 1734.0, 1733.0, 1740.0, 1739.0, 1742.0, 1734.0, 1737.0, 1740.0, 1744.0, 1740.0, 1734.0, 1737.0, 1743.0, 1744.0, 1743.0, 1736.0, 1743.0, 1735.0, 1738.0, 1739.0, 1743.0, 1734.0, 1735.0, 1737.0, 1743.0, 1745.0, 1742.0, 1738.0, 1738.0, 1745.0, 1738.0, 1725.0, 1727.0, 1724.0, 1727.0, 1731.0, 1734.0, 1736.0, 1735.0, 1735.0, 1741.0, 1746.0, 1735.0, 1734.0, 1738.0, 1745.0, 1746.0, 1738.0, 1738.0, 1743.0, 1746.0, 1736.0, 1736.0, 1739.0, 1737.0, 1740.0]
    },
    "slices": {}
  }
}