{
  "AcquisitionMatrixPE": 70,
  "AcquisitionNumber": 1,
  "AcquisitionTime": "11:02:12.760000",
  "BandwidthPerPixelPhaseEncode": 38.873,
  "BaseResolution": 70,
  "BodyPartExamined": "HEAD",
  "ConsistencyInfo": "N4_VE11B_LATEST_20150530",
  "ConversionSoftware": "dcm2niix",
  "ConversionSoftwareVersion": "v1.0.20190410  GCC6.3.0",
  "DerivedVendorReportedEchoSpacing": 0.000489996,
  "DeviceSerialNumber": "66088",
  "DwellTime": 2.9e-06,
  "EchoTime": 0.03,
  "EchoTrainLength": 53,
  "EffectiveEchoSpacing": 0.000367497,
  "FlipAngle": 90,
  "ImageOrientationPatientDICOM": [0.999685, -0.000377934, 0.0250804, 0.00872414, 0.942699, -0.333532],
  "ImageType": [
    "ORIGINAL",
    "PRIMARY",
    "M",
    "ND",
    "NORM",
    "MOSAIC"
],
  "ImagingFrequency": 123.191,
  "InPlanePhaseEncodingDirectionDICOM": "COL",
  "InstitutionAddress": "Street_StreetNo_City_District_IR_ZIP",
  "InstitutionName": "NBML",
  "InstitutionalDepartmentName": "Department",
  "MRAcquisitionType": "2D",
  "MagneticFieldStrength": 3,
  "Manufacturer": "Siemens",
  "ManufacturersModelName": "Prisma",
  "Modality": "MR",
  "ParallelReductionFactorInPlane": 2,
  "PartialFourier": 1,
  "PatientPosition": "HFS",
  "PercentPhaseFOV": 100,
  "PhaseEncodingDirection": "j-",
  "PhaseEncodingSteps": 105,
  "PhaseOversampling": 0.5,
  "PhaseResolution": 1,
  "PixelBandwidth": 2465,
  "ProcedureStepDescription": "NBML_Project_Dr_Khaligh",
  "ProtocolName": "ep2d_p2_Task_3.5_measurment:237",
  "PulseSequenceDetails": "%SiemensSeq%_ep2d_pace",
  "ReceiveCoilActiveElements": "HC1-7",
  "ReceiveCoilName": "HeadNeck_64",
  "ReconMatrixPE": 70,
  "RefLinesPE": 24,
  "RepetitionTime": 2,
  "SAR": 0.0997714,
  "ScanOptions": "FS",
  "ScanningSequence": "EP",
  "SequenceName": "_epfid2d1_70",
  "SequenceVariant": "SK_OSP",
  "SeriesDescription": "ep2d_p2_Task_3.5_measurment:237",
  "SeriesNumber": 6,
  "ShimSetting": [2605, -4465, -3241, 506, 16, 112, -26, 11],
  "SliceThickness": 3.5,
  "SliceTiming": [0.99, 0, 1.0475, 0.0575, 1.105, 0.115, 1.165, 0.175, 1.2225, 0.2325, 1.28, 0.29, 1.3375, 0.35, 1.3975, 0.4075, 1.455, 0.465, 1.5125, 0.5225, 1.5725, 0.5825, 1.63, 0.64, 1.6875, 0.6975, 1.7475, 0.7575, 1.805, 0.815, 1.8625, 0.8725, 1.92, 0.93],
  "SoftwareVersions": "syngo_MR_E11",
  "SpacingBetweenSlices": 3.85,
  "StationName": "AWP66088",
  "TaskName": "categorySelectivity",
  "TotalReadoutTime": 0.0253573,
  "TxRefAmp": 222.708,
  "dcmmeta_affine": [
    [-3.5417425632476807, 0.030908390879631042, 0.09054140001535416, 120.28458404541016],
    [0.0013389670057222247, 3.33984637260437, -1.2845348119735718, -87.32678985595703],
    [0.08885643631219864, 1.1816545724868774, 3.628260374069214, -82.14836120605469],
    [0.0, 0.0, 0.0, 1.0]
],
  "dcmmeta_reorient_transform": [
    [0.0, -1.0, 0.0, 69.0],
    [1.0, 0.0, 0.0, 0.0],
    [0.0, 0.0, 1.0, 0.0],
    [0.0, 0.0, 0.0, 1.0]
],
  "dcmmeta_shape": [70, 70, 34, 237],
  "dcmmeta_slice_dim": 2,
  "dcmmeta_version": 0.6,
  "global": {
    "const": {
      "AccessionNumber": "BRZ",
      "AcquisitionMatrix": [70, 0, 0, 70],
      "AngioFlag": "N",
      "BitsAllocated": 16,
      "BitsStored": 12,
      "BodyPartExamined": "HEAD",
      "Columns": 420,
      "EchoNumbers": 1,
      "EchoTime": 30.0,
      "EchoTrainLength": 53,
      "FlipAngle": 90.0,
      "HighBit": 11,
      "ImageOrientationPatient": [0.99968536470255, -0.0003779342299, 0.02508044587437, 0.00872414271927, 0.94269857385881, -0.3335315400054],
      "ImagePositionPatient": [-747.63116263894, -727.36141021391, 190.62548658704],
      "ImageType": [
        "ORIGINAL",
        "PRIMARY",
        "M",
        "ND",
        "NORM",
        "MOSAIC"
],
      "ImagedNucleus": "1H",
      "ImagingFrequency": 123.191185,
      "InPlanePhaseEncodingDirection": "COL",
      "MRAcquisitionType": "2D",
      "MagneticFieldStrength": 3.0,
      "Manufacturer": "SIEMENS",
      "ManufacturerModelName": "Prisma",
      "Modality": "MR",
      "NumberOfAverages": 1.0,
      "NumberOfPhaseEncodingSteps": 105,
      "PercentPhaseFieldOfView": 100.0,
      "PercentSampling": 100.0,
      "PerformedProcedureStepStartTime": "102435.176000",
      "PhotometricInterpretation": "MONOCHROME2",
      "PixelBandwidth": 2465.0,
      "PixelRepresentation": 0,
      "PixelSpacing": [3.542857170105, 3.542857170105],
      "ProtocolName": "ep2d_p2_Task_3.5_measurment:237",
      "RepetitionTime": 2000.0,
      "Rows": 420,
      "SAR": 0.09977141773887,
      "SamplesPerPixel": 1,
      "ScanOptions": "FS",
      "ScanningSequence": "EP",
      "SequenceName": "*epfid2d1_70",
      "SequenceVariant": [
        "SK",
        "OSP"
],
      "SeriesDescription": "ep2d_p2_Task_3.5_measurment:237",
      "SeriesNumber": 6,
      "SeriesTime": "110228.568000",
      "SliceLocation": -45.452102698653,
      "SliceThickness": 3.5,
      "SmallestImagePixelValue": 0,
      "SoftwareVersions": "syngo MR E11",
      "SpacingBetweenSlices": 3.8500000221207,
      "SpecificCharacterSet": "ISO_IR 100",
      "StudyID": "1",
      "StudyTime": "102435.130000",
      "TransmitCoilName": "Body",
      "VariableFlipAngleFlag": "N",
      "WindowCenterWidthExplanation": "Algo1",
      "dBdt": 0.0},
    "slices": {}
  },
  "time": {
    "samples": {
      "AcquisitionNumber": [1, 2, 3, 4, 5, 6, 7, 8, 9, 10, 11, 12, 13, 14, 15, 16, 17, 18, 19, 20, 21, 22, 23, 24, 25, 26, 27, 28, 29, 30, 31, 32, 33, 34, 35, 36, 37, 38, 39, 40, 41, 42, 43, 44, 45, 46, 47, 48, 49, 50, 51, 52, 53, 54, 55, 56, 57, 58, 59, 60, 61, 62, 63, 64, 65, 66, 67, 68, 69, 70, 71, 72, 73, 74, 75, 76, 77, 78, 79, 80, 81, 82, 83, 84, 85, 86, 87, 88, 89, 90, 91, 92, 93, 94, 95, 96, 97, 98, 99, 100, 101, 102, 103, 104, 105, 106, 107, 108, 109, 110, 111, 112, 113, 114, 115, 116, 117, 118, 119, 120, 121, 122, 123, 124, 125, 126, 127, 128, 129, 130, 131, 132, 133, 134, 135, 136, 137, 138, 139, 140, 141, 142, 143, 144, 145, 146, 147, 148, 149, 150, 151, 152, 153, 154, 155, 156, 157, 158, 159, 160, 161, 162, 163, 164, 165, 166, 167, 168, 169, 170, 171, 172, 173, 174, 175, 176, 177, 178, 179, 180, 181, 182, 183, 184, 185, 186, 187, 188, 189, 190, 191, 192, 193, 194, 195, 196, 197, 198, 199, 200, 201, 202, 203, 204, 205, 206, 207, 208, 209, 210, 211, 212, 213, 214, 215, 216, 217, 218, 219, 220, 221, 222, 223, 224, 225, 226, 227, 228, 229, 230, 231, 232, 233, 234, 235, 236, 237],
      "AcquisitionTime": ["110212.760000", "110214.760000", "110216.760000", "110218.760000", "110220.760000", "110222.760000", "110224.760000", "110226.760000", "110228.760000", "110230.760000", "110232.760000", "110234.760000", "110236.760000", "110238.760000", "110240.760000", "110242.760000", "110244.760000", "110246.760000", "110248.760000", "110250.760000", "110252.760000", "110254.760000", "110256.760000", "110258.760000", "110300.760000", "110302.760000", "110304.760000", "110306.760000", "110308.760000", "110310.760000", "110312.760000", "110314.760000", "110316.760000", "110318.760000", "110320.760000", "110322.760000", "110324.760000", "110326.760000", "110328.760000", "110330.760000", "110332.760000", "110334.760000", "110336.760000", "110338.760000", "110340.760000", "110342.760000", "110344.760000", "110346.760000", "110348.760000", "110350.760000", "110352.760000", "110354.760000", "110356.760000", "110358.760000", "110400.760000", "110402.760000", "110404.760000", "110406.760000", "110408.760000", "110410.760000", "110412.760000", "110414.760000", "110416.760000", "110418.760000", "110420.760000", "110422.760000", "110424.760000", "110426.760000", "110428.760000", "110430.760000", "110432.760000", "110434.760000", "110436.760000", "110438.760000", "110440.760000", "110442.760000", "110444.760000", "110446.760000", "110448.760000", "110450.760000", "110452.760000", "110454.760000", "110456.760000", "110458.760000", "110500.760000", "110502.760000", "110504.760000", "110506.760000", "110508.760000", "110510.760000", "110512.760000", "110514.760000", "110516.760000", "110518.760000", "110520.760000", "110522.760000", "110524.760000", "110526.760000", "110528.760000", "110530.760000", "110532.760000", "110534.760000", "110536.760000", "110538.760000", "110540.760000", "110542.760000", "110544.760000", "110546.760000", "110548.760000", "110550.760000", "110552.760000", "110554.760000", "110556.760000", "110558.760000", "110600.760000", "110602.760000", "110604.760000", "110606.760000", "110608.760000", "110610.760000", "110612.760000", "110614.760000", "110616.760000", "110618.760000", "110620.760000", "110622.760000", "110624.760000", "110626.760000", "110628.760000", "110630.760000", "110632.760000", "110634.760000", "110636.760000", "110638.760000", "110640.760000", "110642.760000", "110644.760000", "110646.760000", "110648.760000", "110650.760000", "110652.760000", "110654.760000", "110656.760000", "110658.760000", "110700.760000", "110702.760000", "110704.760000", "110706.760000", "110708.760000", "110710.760000", "110712.760000", "110714.760000", "110716.760000", "110718.760000", "110720.760000", "110722.760000", "110724.760000", "110726.760000", "110728.760000", "110730.760000", "110732.760000", "110734.760000", "110736.760000", "110738.760000", "110740.760000", "110742.760000", "110744.760000", "110746.760000", "110748.760000", "110750.760000", "110752.760000", "110754.760000", "110756.760000", "110758.760000", "110800.760000", "110802.760000", "110804.760000", "110806.760000", "110808.760000", "110810.760000", "110812.760000", "110814.760000", "110816.760000", "110818.760000", "110820.760000", "110822.760000", "110824.760000", "110826.760000", "110828.760000", "110830.760000", "110832.760000", "110834.760000", "110836.760000", "110838.760000", "110840.760000", "110842.760000", "110844.760000", "110846.760000", "110848.760000", "110850.760000", "110852.760000", "110854.760000", "110856.760000", "110858.760000", "110900.760000", "110902.760000", "110904.760000", "110906.760000", "110908.760000", "110910.760000", "110912.760000", "110914.760000", "110916.760000", "110918.760000", "110920.760000", "110922.760000", "110924.760000", "110926.760000", "110928.760000", "110930.760000", "110932.760000", "110934.760000", "110936.760000", "110938.760000", "110940.760000", "110942.760000", "110944.760000", "110946.760000", "110948.760000", "110950.760000", "110952.760000", "110954.760000", "110956.760000", "110958.760000", "111000.760000", "111002.760000", "111004.760000"],
      "ContentTime": ["110228.572000", "110228.577000", "110228.581000", "110228.584000", "110228.598000", "110228.601000", "110228.604000", "110228.607000", "110308.562000", "110308.565000", "110308.568000", "110308.570000", "110308.573000", "110308.575000", "110308.578000", "110308.580000", "110308.588000", "110308.593000", "110308.595000", "110308.598000", "110308.601000", "110308.603000", "110308.606000", "110308.609000", "110308.611000", "110308.614000", "110308.617000", "110308.619000", "110348.564000", "110348.568000", "110348.571000", "110348.575000", "110348.578000", "110348.581000", "110348.584000", "110348.587000", "110348.591000", "110348.594000", "110348.597000", "110348.601000", "110348.604000", "110348.613000", "110348.617000", "110348.620000", "110348.623000", "110348.626000", "110348.630000", "110348.633000", "110428.564000", "110428.567000", "110428.570000", "110428.573000", "110428.576000", "110428.579000", "110428.583000", "110428.586000", "110428.589000", "110428.593000", "110428.596000", "110428.600000", "110428.603000", "110428.606000", "110428.609000", "110428.612000", "110428.615000", "110428.618000", "110428.622000", "110428.625000", "110508.563000", "110508.567000", "110508.570000", "110508.573000", "110508.577000", "110508.580000", "110508.583000", "110508.586000", "110508.590000", "110508.593000", "110508.597000", "110508.600000", "110508.603000", "110508.606000", "110508.610000", "110508.613000", "110508.616000", "110508.619000", "110508.623000", "110508.626000", "110548.563000", "110548.567000", "110548.570000", "110548.573000", "110548.576000", "110548.579000", "110548.583000", "110548.586000", "110548.589000", "110548.592000", "110548.596000", "110548.599000", "110548.602000", "110548.605000", "110548.609000", "110548.612000", "110548.615000", "110548.618000", "110548.621000", "110548.625000", "110628.564000", "110628.567000", "110628.571000", "110628.574000", "110628.577000", "110628.580000", "110628.584000", "110628.587000", "110628.590000", "110628.594000", "110628.597000", "110628.600000", "110628.603000", "110628.606000", "110628.609000", "110628.612000", "110628.616000", "110628.619000", "110628.622000", "110628.625000", "110708.565000", "110708.568000", "110708.572000", "110708.575000", "110708.578000", "110708.581000", "110708.585000", "110708.588000", "110708.591000", "110708.594000", "110708.598000", "110708.601000", "110708.604000", "110708.607000", "110708.610000", "110708.614000", "110708.617000", "110708.620000", "110708.623000", "110708.627000", "110748.563000", "110748.566000", "110748.570000", "110748.573000", "110748.576000", "110748.580000", "110748.583000", "110748.586000", "110748.589000", "110748.593000", "110748.596000", "110748.599000", "110748.603000", "110748.606000", "110748.609000", "110748.612000", "110748.616000", "110748.630000", "110748.633000", "110748.636000", "110828.564000", "110828.567000", "110828.571000", "110828.574000", "110828.578000", "110828.581000", "110828.592000", "110828.595000", "110828.599000", "110828.602000", "110828.605000", "110828.609000", "110828.612000", "110828.615000", "110828.618000", "110828.622000", "110828.625000", "110828.628000", "110828.631000", "110828.635000", "110848.564000", "110848.568000", "110848.571000", "110848.574000", "110848.577000", "110848.580000", "110848.584000", "110848.587000", "110848.590000", "110848.594000", "110928.565000", "110928.568000", "110928.572000", "110928.575000", "110928.594000", "110928.597000", "110928.600000", "110928.604000", "110928.607000", "110928.610000", "110928.613000", "110928.616000", "110928.620000", "110928.623000", "110928.626000", "110928.630000", "110928.633000", "110928.636000", "110928.640000", "110928.643000", "111006.074000", "111006.078000", "111006.082000", "111006.085000", "111006.088000", "111006.092000", "111006.095000", "111006.099000", "111006.109000", "111006.113000", "111006.133000", "111006.136000", "111006.142000", "111006.147000", "111006.153000", "111006.156000", "111006.161000", "111006.165000", "111006.168000"],
      "InstanceCreationTime": ["110228.572000", "110228.577000", "110228.581000", "110228.584000", "110228.598000", "110228.601000", "110228.604000", "110228.607000", "110308.562000", "110308.565000", "110308.568000", "110308.570000", "110308.573000", "110308.575000", "110308.578000", "110308.580000", "110308.588000", "110308.593000", "110308.595000", "110308.598000", "110308.601000", "110308.603000", "110308.606000", "110308.609000", "110308.611000", "110308.614000", "110308.617000", "110308.619000", "110348.564000", "110348.568000", "110348.571000", "110348.575000", "110348.578000", "110348.581000", "110348.584000", "110348.587000", "110348.591000", "110348.594000", "110348.597000", "110348.601000", "110348.604000", "110348.613000", "110348.617000", "110348.620000", "110348.623000", "110348.626000", "110348.630000", "110348.633000", "110428.564000", "110428.567000", "110428.570000", "110428.573000", "110428.576000", "110428.579000", "110428.583000", "110428.586000", "110428.589000", "110428.593000", "110428.596000", "110428.600000", "110428.603000", "110428.606000", "110428.609000", "110428.612000", "110428.615000", "110428.618000", "110428.622000", "110428.625000", "110508.563000", "110508.567000", "110508.570000", "110508.573000", "110508.577000", "110508.580000", "110508.583000", "110508.586000", "110508.590000", "110508.593000", "110508.597000", "110508.600000", "110508.603000", "110508.606000", "110508.610000", "110508.613000", "110508.616000", "110508.619000", "110508.623000", "110508.626000", "110548.563000", "110548.567000", "110548.570000", "110548.573000", "110548.576000", "110548.579000", "110548.583000", "110548.586000", "110548.589000", "110548.592000", "110548.596000", "110548.599000", "110548.602000", "110548.605000", "110548.609000", "110548.612000", "110548.615000", "110548.618000", "110548.621000", "110548.625000", "110628.564000", "110628.567000", "110628.571000", "110628.574000", "110628.577000", "110628.580000", "110628.584000", "110628.587000", "110628.590000", "110628.594000", "110628.597000", "110628.600000", "110628.603000", "110628.606000", "110628.609000", "110628.612000", "110628.616000", "110628.619000", "110628.622000", "110628.625000", "110708.565000", "110708.568000", "110708.572000", "110708.575000", "110708.578000", "110708.581000", "110708.585000", "110708.588000", "110708.591000", "110708.594000", "110708.598000", "110708.601000", "110708.604000", "110708.607000", "110708.610000", "110708.614000", "110708.617000", "110708.620000", "110708.623000", "110708.627000", "110748.563000", "110748.566000", "110748.570000", "110748.573000", "110748.576000", "110748.580000", "110748.583000", "110748.586000", "110748.589000", "110748.593000", "110748.596000", "110748.599000", "110748.603000", "110748.606000", "110748.609000", "110748.612000", "110748.616000", "110748.630000", "110748.633000", "110748.636000", "110828.564000", "110828.567000", "110828.571000", "110828.574000", "110828.578000", "110828.581000", "110828.592000", "110828.595000", "110828.599000", "110828.602000", "110828.605000", "110828.609000", "110828.612000", "110828.615000", "110828.618000", "110828.622000", "110828.625000", "110828.628000", "110828.631000", "110828.635000", "110848.564000", "110848.568000", "110848.571000", "110848.574000", "110848.577000", "110848.580000", "110848.584000", "110848.587000", "110848.590000", "110848.594000", "110928.565000", "110928.568000", "110928.572000", "110928.575000", "110928.594000", "110928.597000", "110928.600000", "110928.604000", "110928.607000", "110928.610000", "110928.613000", "110928.616000", "110928.620000", "110928.623000", "110928.626000", "110928.630000", "110928.633000", "110928.636000", "110928.640000", "110928.643000", "111006.074000", "111006.078000", "111006.082000", "111006.085000", "111006.088000", "111006.092000", "111006.095000", "111006.099000", "111006.109000", "111006.113000", "111006.133000", "111006.136000", "111006.142000", "111006.147000", "111006.153000", "111006.156000", "111006.161000", "111006.165000", "111006.168000"],
      "InstanceNumber": [1, 2, 3, 4, 5, 6, 7, 8, 9, 10, 11, 12, 13, 14, 15, 16, 17, 18, 19, 20, 21, 22, 23, 24, 25, 26, 27, 28, 29, 30, 31, 32, 33, 34, 35, 36, 37, 38, 39, 40, 41, 42, 43, 44, 45, 46, 47, 48, 49, 50, 51, 52, 53, 54, 55, 56, 57, 58, 59, 60, 61, 62, 63, 64, 65, 66, 67, 68, 69, 70, 71, 72, 73, 74, 75, 76, 77, 78, 79, 80, 81, 82, 83, 84, 85, 86, 87, 88, 89, 90, 91, 92, 93, 94, 95, 96, 97, 98, 99, 100, 101, 102, 103, 104, 105, 106, 107, 108, 109, 110, 111, 112, 113, 114, 115, 116, 117, 118, 119, 120, 121, 122, 123, 124, 125, 126, 127, 128, 129, 130, 131, 132, 133, 134, 135, 136, 137, 138, 139, 140, 141, 142, 143, 144, 145, 146, 147, 148, 149, 150, 151, 152, 153, 154, 155, 156, 157, 158, 159, 160, 161, 162, 163, 164, 165, 166, 167, 168, 169, 170, 171, 172, 173, 174, 175, 176, 177, 178, 179, 180, 181, 182, 183, 184, 185, 186, 187, 188, 189, 190, 191, 192, 193, 194, 195, 196, 197, 198, 199, 200, 201, 202, 203, 204, 205, 206, 207, 208, 209, 210, 211, 212, 213, 214, 215, 216, 217, 218, 219, 220, 221, 222, 223, 224, 225, 226, 227, 228, 229, 230, 231, 232, 233, 234, 235, 236, 237],
      "LargestImagePixelValue": [2695, 1955, 2312, 1967, 2273, 2046, 2237, 2338, 1965, 2468, 1958, 2505, 1984, 1970, 2119, 2720, 2245, 2088, 2721, 2282, 2082, 2394, 1920, 2277, 1945, 2663, 2047, 1921, 2070, 1998, 2690, 2164, 2137, 1958, 2138, 1963, 2593, 2056, 2032, 2777, 2476, 1962, 2064, 2416, 2964, 1968, 2051, 2227, 3068, 1971, 1978, 2837, 2279, 2061, 1972, 2136, 2206, 2710, 2626, 1997, 1984, 2030, 2410, 3071, 2044, 2054, 2637, 2517, 3144, 2191, 2097, 1947, 2106, 1955, 2146, 2824, 2087, 2623, 2216, 2146, 2812, 2135, 1996, 3044, 2125, 1992, 2139, 3005, 2086, 2124, 1937, 2233, 2059, 2189, 1965, 2073, 2740, 2725, 1985, 2145, 2033, 2039, 1985, 2699, 2410, 1970, 2015, 2507, 2094, 2112, 2137, 2646, 2666, 1995, 2015, 2071, 2555, 2037, 2767, 1976, 2104, 2209, 2765, 2056, 2091, 2196, 2980, 2108, 2085, 2247, 2090, 2665, 1926, 2382, 2251, 2013, 2028, 2284, 2097, 2728, 1950, 2171, 2297, 2011, 2643, 2188, 2136, 2879, 2019, 2029, 2136, 2321, 2123, 2326, 2178, 2239, 2048, 2270, 2287, 1996, 2104, 2201, 2136, 2322, 2273, 2673, 2202, 2056, 2688, 2013, 2560, 2199, 2221, 2260, 2074, 2683, 2121, 2038, 2318, 1964, 2708, 2092, 2376, 2308, 2053, 2411, 2062, 2440, 2050, 2102, 2611, 2243, 2124, 2623, 2467, 2037, 2553, 2145, 2146, 2700, 2121, 2569, 1952, 2129, 2283, 1975, 2391, 2037, 2111, 2303, 2064, 2435, 2966, 2141, 2159, 2731, 1998, 2104, 2717, 2059, 2038, 2841, 2531, 2032, 2046, 2217, 2375, 2764, 3233, 2234, 1954, 1984, 1990, 2119, 2473, 2059, 2073],
      "WindowCenter": [765.0, 762.0, 762.0, 763.0, 764.0, 763.0, 763.0, 763.0, 762.0, 764.0, 763.0, 764.0, 763.0, 763.0, 765.0, 764.0, 762.0, 762.0, 762.0, 762.0, 763.0, 764.0, 763.0, 762.0, 763.0, 764.0, 762.0, 761.0, 763.0, 764.0, 764.0, 763.0, 763.0, 763.0, 763.0, 763.0, 764.0, 764.0, 764.0, 765.0, 764.0, 763.0, 764.0, 765.0, 764.0, 762.0, 763.0, 763.0, 763.0, 762.0, 763.0, 765.0, 763.0, 762.0, 761.0, 763.0, 764.0, 764.0, 762.0, 761.0, 763.0, 764.0, 764.0, 764.0, 763.0, 764.0, 764.0, 763.0, 762.0, 760.0, 760.0, 761.0, 762.0, 762.0, 763.0, 764.0, 763.0, 764.0, 765.0, 764.0, 764.0, 764.0, 764.0, 764.0, 763.0, 763.0, 764.0, 764.0, 763.0, 762.0, 763.0, 764.0, 764.0, 764.0, 763.0, 765.0, 765.0, 765.0, 763.0, 763.0, 764.0, 764.0, 764.0, 765.0, 763.0, 762.0, 762.0, 763.0, 763.0, 763.0, 763.0, 765.0, 764.0, 762.0, 762.0, 763.0, 765.0, 764.0, 764.0, 763.0, 763.0, 763.0, 764.0, 763.0, 764.0, 765.0, 765.0, 764.0, 764.0, 764.0, 764.0, 764.0, 763.0, 764.0, 763.0, 763.0, 764.0, 766.0, 765.0, 765.0, 763.0, 764.0, 764.0, 764.0, 765.0, 765.0, 765.0, 765.0, 764.0, 764.0, 764.0, 765.0, 764.0, 764.0, 764.0, 764.0, 764.0, 763.0, 763.0, 763.0, 764.0, 764.0, 765.0, 765.0, 764.0, 764.0, 764.0, 763.0, 764.0, 763.0, 764.0, 764.0, 764.0, 764.0, 765.0, 765.0, 764.0, 764.0, 764.0, 765.0, 765.0, 764.0, 764.0, 764.0, 763.0, 764.0, 764.0, 764.0, 764.0, 765.0, 766.0, 765.0, 765.0, 765.0, 764.0, 763.0, 763.0, 763.0, 764.0, 765.0, 764.0, 764.0, 763.0, 764.0, 764.0, 763.0, 764.0, 764.0, 764.0, 765.0, 765.0, 765.0, 766.0, 764.0, 764.0, 764.0, 764.0, 765.0, 765.0, 764.0, 764.0, 765.0, 765.0, 764.0, 764.0, 764.0, 764.0, 763.0, 763.0, 761.0, 761.0, 763.0, 764.0, 764.0, 763.0, 763.0, 763.0],
      "WindowWidth": [1727.0, 1714.0, 1715.0, 1715.0, 1721.0, 1718.0, 1719.0, 1719.0, 1714.0, 1721.0, 1718.0, 1722.0, 1716.0, 1718.0, 1724.0, 1724.0, 1715.0, 1712.0, 1715.0, 1715.0, 1718.0, 1722.0, 1714.0, 1715.0, 1716.0, 1724.0, 1714.0, 1711.0, 1716.0, 1719.0, 1723.0, 1717.0, 1716.0, 1716.0, 1718.0, 1717.0, 1723.0, 1720.0, 1720.0, 1726.0, 1722.0, 1715.0, 1721.0, 1723.0, 1725.0, 1713.0, 1717.0, 1719.0, 1722.0, 1711.0, 1717.0, 1727.0, 1718.0, 1712.0, 1711.0, 1717.0, 1722.0, 1721.0, 1716.0, 1710.0, 1717.0, 1720.0, 1719.0, 1723.0, 1717.0, 1718.0, 1722.0, 1720.0, 1718.0, 1706.0, 1706.0, 1709.0, 1712.0, 1713.0, 1717.0, 1724.0, 1718.0, 1723.0, 1724.0, 1721.0, 1722.0, 1719.0, 1718.0, 1724.0, 1716.0, 1717.0, 1719.0, 1725.0, 1715.0, 1714.0, 1715.0, 1719.0, 1718.0, 1720.0, 1717.0, 1723.0, 1728.0, 1725.0, 1715.0, 1718.0, 1718.0, 1719.0, 1720.0, 1725.0, 1717.0, 1713.0, 1714.0, 1720.0, 1715.0, 1715.0, 1718.0, 1725.0, 1721.0, 1712.0, 1713.0, 1718.0, 1727.0, 1719.0, 1723.0, 1715.0, 1716.0, 1718.0, 1721.0, 1716.0, 1718.0, 1722.0, 1726.0, 1718.0, 1718.0, 1721.0, 1720.0, 1723.0, 1716.0, 1720.0, 1718.0, 1715.0, 1719.0, 1726.0, 1723.0, 1725.0, 1717.0, 1720.0, 1721.0, 1718.0, 1725.0, 1722.0, 1723.0, 1727.0, 1719.0, 1719.0, 1721.0, 1723.0, 1720.0, 1721.0, 1719.0, 1721.0, 1718.0, 1719.0, 1718.0, 1716.0, 1718.0, 1720.0, 1724.0, 1725.0, 1721.0, 1723.0, 1718.0, 1717.0, 1723.0, 1717.0, 1723.0, 1719.0, 1719.0, 1721.0, 1722.0, 1726.0, 1719.0, 1719.0, 1723.0, 1720.0, 1727.0, 1720.0, 1720.0, 1720.0, 1717.0, 1722.0, 1717.0, 1721.0, 1720.0, 1724.0, 1728.0, 1722.0, 1722.0, 1724.0, 1721.0, 1714.0, 1717.0, 1716.0, 1720.0, 1727.0, 1719.0, 1721.0, 1715.0, 1719.0, 1721.0, 1716.0, 1720.0, 1720.0, 1721.0, 1725.0, 1725.0, 1726.0, 1731.0, 1721.0, 1719.0, 1723.0, 1718.0, 1722.0, 1726.0, 1718.0, 1719.0, 1726.0, 1724.0, 1721.0, 1719.0, 1720.0, 1722.0, 1720.0, 1719.0, 1709.0, 1709.0, 1716.0, 1719.0, 1718.0, 1719.0, 1716.0, 1717.0]
    },
    "slices": {}
  }
}