{
  "AcquisitionMatrixPE": 70,
  "AcquisitionNumber": 1,
  "AcquisitionTime": "11:11:18.742500",
  "BandwidthPerPixelPhaseEncode": 38.873,
  "BaseResolution": 70,
  "BodyPartExamined": "HEAD",
  "ConsistencyInfo": "N4_VE11B_LATEST_20150530",
  "ConversionSoftware": "dcm2niix",
  "ConversionSoftwareVersion": "v1.0.20190410  GCC6.3.0",
  "DerivedVendorReportedEchoSpacing": 0.000489996,
  "DeviceSerialNumber": "66088",
  "DwellTime": 2.9e-06,
  "EchoTime": 0.03,
  "EchoTrainLength": 53,
  "EffectiveEchoSpacing": 0.000367497,
  "FlipAngle": 90,
  "ImageOrientationPatientDICOM": [0.999685, -0.000377934, 0.0250804, 0.00872414, 0.942699, -0.333532],
  "ImageType": [
    "ORIGINAL",
    "PRIMARY",
    "M",
    "ND",
    "NORM",
    "MOSAIC"
],
  "ImagingFrequency": 123.191,
  "InPlanePhaseEncodingDirectionDICOM": "COL",
  "InstitutionAddress": "Street_StreetNo_City_District_IR_ZIP",
  "InstitutionName": "NBML",
  "InstitutionalDepartmentName": "Department",
  "MRAcquisitionType": "2D",
  "MagneticFieldStrength": 3,
  "Manufacturer": "Siemens",
  "ManufacturersModelName": "Prisma",
  "Modality": "MR",
  "ParallelReductionFactorInPlane": 2,
  "PartialFourier": 1,
  "PatientPosition": "HFS",
  "PercentPhaseFOV": 100,
  "PhaseEncodingDirection": "j-",
  "PhaseEncodingSteps": 105,
  "PhaseOversampling": 0.5,
  "PhaseResolution": 1,
  "PixelBandwidth": 2465,
  "ProcedureStepDescription": "NBML_Project_Dr_Khaligh",
  "ProtocolName": "ep2d_p2_Task_3.5_measurment:237",
  "PulseSequenceDetails": "%SiemensSeq%_ep2d_pace",
  "ReceiveCoilActiveElements": "HC1-7",
  "ReceiveCoilName": "HeadNeck_64",
  "ReconMatrixPE": 70,
  "RefLinesPE": 24,
  "RepetitionTime": 2,
  "SAR": 0.0997714,
  "ScanOptions": "FS",
  "ScanningSequence": "EP",
  "SequenceName": "_epfid2d1_70",
  "SequenceVariant": "SK_OSP",
  "SeriesDescription": "ep2d_p2_Task_3.5_measurment:237",
  "SeriesNumber": 7,
  "ShimSetting": [2605, -4465, -3241, 506, 16, 112, -26, 11],
  "SliceThickness": 3.5,
  "SliceTiming": [0.99, 0, 1.05, 0.06, 1.1075, 0.1175, 1.165, 0.175, 1.225, 0.235, 1.2825, 0.2925, 1.34, 0.35, 1.3975, 0.4075, 1.4575, 0.4675, 1.515, 0.525, 1.5725, 0.5825, 1.6325, 0.6425, 1.69, 0.7, 1.7475, 0.7575, 1.805, 0.815, 1.865, 0.875, 1.9225, 0.9325],
  "SoftwareVersions": "syngo_MR_E11",
  "SpacingBetweenSlices": 3.85,
  "StationName": "AWP66088",
  "TaskName": "categorySelectivity",
  "TotalReadoutTime": 0.0253573,
  "TxRefAmp": 222.708,
  "dcmmeta_affine": [
    [-3.5417425632476807, 0.030908390879631042, 0.09054140001535416, 120.28458404541016],
    [0.0013389670057222247, 3.33984637260437, -1.2845348119735718, -87.32678985595703],
    [0.08885643631219864, 1.1816545724868774, 3.628260374069214, -82.14836120605469],
    [0.0, 0.0, 0.0, 1.0]
],
  "dcmmeta_reorient_transform": [
    [0.0, -1.0, 0.0, 69.0],
    [1.0, 0.0, 0.0, 0.0],
    [0.0, 0.0, 1.0, 0.0],
    [0.0, 0.0, 0.0, 1.0]
],
  "dcmmeta_shape": [70, 70, 34, 237],
  "dcmmeta_slice_dim": 2,
  "dcmmeta_version": 0.6,
  "global": {
    "const": {
      "AccessionNumber": "BRZ",
      "AcquisitionMatrix": [70, 0, 0, 70],
      "AngioFlag": "N",
      "BitsAllocated": 16,
      "BitsStored": 12,
      "BodyPartExamined": "HEAD",
      "Columns": 420,
      "EchoNumbers": 1,
      "EchoTime": 30.0,
      "EchoTrainLength": 53,
      "FlipAngle": 90.0,
      "HighBit": 11,
      "ImageOrientationPatient": [0.99968536470255, -0.0003779342299, 0.02508044587437, 0.00872414271927, 0.94269857385881, -0.3335315400054],
      "ImagePositionPatient": [-747.63116263894, -727.36141021391, 190.62548658704],
      "ImageType": [
        "ORIGINAL",
        "PRIMARY",
        "M",
        "ND",
        "NORM",
        "MOSAIC"
],
      "ImagedNucleus": "1H",
      "ImagingFrequency": 123.191176,
      "InPlanePhaseEncodingDirection": "COL",
      "MRAcquisitionType": "2D",
      "MagneticFieldStrength": 3.0,
      "Manufacturer": "SIEMENS",
      "ManufacturerModelName": "Prisma",
      "Modality": "MR",
      "NumberOfAverages": 1.0,
      "NumberOfPhaseEncodingSteps": 105,
      "PercentPhaseFieldOfView": 100.0,
      "PercentSampling": 100.0,
      "PerformedProcedureStepStartTime": "102435.176000",
      "PhotometricInterpretation": "MONOCHROME2",
      "PixelBandwidth": 2465.0,
      "PixelRepresentation": 0,
      "PixelSpacing": [3.542857170105, 3.542857170105],
      "ProtocolName": "ep2d_p2_Task_3.5_measurment:237",
      "RepetitionTime": 2000.0,
      "Rows": 420,
      "SAR": 0.09977141773887,
      "SamplesPerPixel": 1,
      "ScanOptions": "FS",
      "ScanningSequence": "EP",
      "SequenceName": "*epfid2d1_70",
      "SequenceVariant": [
        "SK",
        "OSP"
],
      "SeriesDescription": "ep2d_p2_Task_3.5_measurment:237",
      "SeriesNumber": 7,
      "SeriesTime": "111205.562000",
      "SliceLocation": -45.452102698653,
      "SliceThickness": 3.5,
      "SmallestImagePixelValue": 0,
      "SoftwareVersions": "syngo MR E11",
      "SpacingBetweenSlices": 3.8500000221207,
      "SpecificCharacterSet": "ISO_IR 100",
      "StudyID": "1",
      "StudyTime": "102435.130000",
      "TransmitCoilName": "Body",
      "VariableFlipAngleFlag": "N",
      "WindowCenterWidthExplanation": "Algo1",
      "dBdt": 0.0},
    "slices": {}
  },
  "time": {
    "samples": {
      "AcquisitionNumber": [1, 2, 3, 4, 5, 6, 7, 8, 9, 10, 11, 12, 13, 14, 15, 16, 17, 18, 19, 20, 21, 22, 23, 24, 25, 26, 27, 28, 29, 30, 31, 32, 33, 34, 35, 36, 37, 38, 39, 40, 41, 42, 43, 44, 45, 46, 47, 48, 49, 50, 51, 52, 53, 54, 55, 56, 57, 58, 59, 60, 61, 62, 63, 64, 65, 66, 67, 68, 69, 70, 71, 72, 73, 74, 75, 76, 77, 78, 79, 80, 81, 82, 83, 84, 85, 86, 87, 88, 89, 90, 91, 92, 93, 94, 95, 96, 97, 98, 99, 100, 101, 102, 103, 104, 105, 106, 107, 108, 109, 110, 111, 112, 113, 114, 115, 116, 117, 118, 119, 120, 121, 122, 123, 124, 125, 126, 127, 128, 129, 130, 131, 132, 133, 134, 135, 136, 137, 138, 139, 140, 141, 142, 143, 144, 145, 146, 147, 148, 149, 150, 151, 152, 153, 154, 155, 156, 157, 158, 159, 160, 161, 162, 163, 164, 165, 166, 167, 168, 169, 170, 171, 172, 173, 174, 175, 176, 177, 178, 179, 180, 181, 182, 183, 184, 185, 186, 187, 188, 189, 190, 191, 192, 193, 194, 195, 196, 197, 198, 199, 200, 201, 202, 203, 204, 205, 206, 207, 208, 209, 210, 211, 212, 213, 214, 215, 216, 217, 218, 219, 220, 221, 222, 223, 224, 225, 226, 227, 228, 229, 230, 231, 232, 233, 234, 235, 236, 237],
      "AcquisitionTime": ["111118.742500", "111120.742500", "111122.742500", "111124.742500", "111126.742500", "111128.742500", "111130.742500", "111132.742500", "111134.742500", "111136.742500", "111138.742500", "111140.742500", "111142.742500", "111144.742500", "111146.742500", "111148.742500", "111150.742500", "111152.742500", "111154.742500", "111156.742500", "111158.742500", "111200.742500", "111202.742500", "111204.742500", "111206.742500", "111208.742500", "111210.742500", "111212.742500", "111214.742500", "111216.742500", "111218.742500", "111220.742500", "111222.742500", "111224.742500", "111226.742500", "111228.742500", "111230.742500", "111232.742500", "111234.742500", "111236.742500", "111238.742500", "111240.742500", "111242.742500", "111244.742500", "111246.742500", "111248.742500", "111250.742500", "111252.742500", "111254.742500", "111256.742500", "111258.742500", "111300.742500", "111302.742500", "111304.742500", "111306.742500", "111308.742500", "111310.742500", "111312.742500", "111314.742500", "111316.742500", "111318.742500", "111320.742500", "111322.742500", "111324.742500", "111326.742500", "111328.742500", "111330.742500", "111332.742500", "111334.742500", "111336.742500", "111338.742500", "111340.742500", "111342.742500", "111344.742500", "111346.742500", "111348.742500", "111350.742500", "111352.742500", "111354.742500", "111356.742500", "111358.742500", "111400.742500", "111402.742500", "111404.742500", "111406.742500", "111408.742500", "111410.742500", "111412.742500", "111414.742500", "111416.742500", "111418.742500", "111420.742500", "111422.742500", "111424.742500", "111426.742500", "111428.742500", "111430.742500", "111432.742500", "111434.742500", "111436.742500", "111438.742500", "111440.742500", "111442.742500", "111444.742500", "111446.742500", "111448.742500", "111450.742500", "111452.742500", "111454.742500", "111456.742500", "111458.742500", "111500.742500", "111502.742500", "111504.742500", "111506.742500", "111508.742500", "111510.742500", "111512.742500", "111514.742500", "111516.742500", "111518.742500", "111520.742500", "111522.742500", "111524.742500", "111526.742500", "111528.742500", "111530.742500", "111532.742500", "111534.742500", "111536.742500", "111538.742500", "111540.742500", "111542.742500", "111544.742500", "111546.742500", "111548.742500", "111550.742500", "111552.742500", "111554.742500", "111556.742500", "111558.742500", "111600.742500", "111602.742500", "111604.742500", "111606.742500", "111608.742500", "111610.742500", "111612.742500", "111614.742500", "111616.742500", "111618.742500", "111620.742500", "111622.742500", "111624.742500", "111626.742500", "111628.742500", "111630.742500", "111632.742500", "111634.742500", "111636.742500", "111638.742500", "111640.742500", "111642.742500", "111644.742500", "111646.742500", "111648.742500", "111650.742500", "111652.742500", "111654.742500", "111656.742500", "111658.742500", "111700.742500", "111702.742500", "111704.742500", "111706.742500", "111708.742500", "111710.742500", "111712.742500", "111714.742500", "111716.742500", "111718.742500", "111720.742500", "111722.742500", "111724.742500", "111726.742500", "111728.742500", "111730.742500", "111732.742500", "111734.742500", "111736.742500", "111738.742500", "111740.742500", "111742.742500", "111744.742500", "111746.742500", "111748.742500", "111750.742500", "111752.742500", "111754.742500", "111756.742500", "111758.742500", "111800.742500", "111802.742500", "111804.742500", "111806.742500", "111808.742500", "111810.742500", "111812.742500", "111814.742500", "111816.742500", "111818.742500", "111820.742500", "111822.742500", "111824.742500", "111826.742500", "111828.742500", "111830.742500", "111832.742500", "111834.742500", "111836.742500", "111838.742500", "111840.742500", "111842.742500", "111844.742500", "111846.742500", "111848.742500", "111850.742500", "111852.742500", "111854.742500", "111856.742500", "111858.742500", "111900.742500", "111902.742500", "111904.742500", "111906.742500", "111908.742500", "111910.742500"],
      "ContentTime": ["111205.574000", "111205.579000", "111205.582000", "111205.587000", "111205.590000", "111205.593000", "111205.596000", "111205.599000", "111205.602000", "111205.605000", "111205.609000", "111205.612000", "111205.614000", "111205.618000", "111205.621000", "111205.624000", "111205.627000", "111205.630000", "111205.634000", "111205.637000", "111205.640000", "111205.643000", "111205.659000", "111245.558000", "111245.561000", "111245.564000", "111245.566000", "111245.569000", "111245.571000", "111245.574000", "111245.576000", "111245.579000", "111245.582000", "111245.584000", "111245.587000", "111245.589000", "111245.592000", "111245.594000", "111245.606000", "111245.609000", "111245.611000", "111245.614000", "111245.616000", "111325.559000", "111325.561000", "111325.564000", "111325.566000", "111325.569000", "111325.571000", "111325.573000", "111325.576000", "111325.578000", "111325.581000", "111325.583000", "111325.585000", "111325.588000", "111325.590000", "111325.593000", "111325.595000", "111325.598000", "111325.600000", "111325.602000", "111325.605000", "111405.559000", "111405.564000", "111405.567000", "111405.570000", "111405.574000", "111405.577000", "111405.580000", "111405.583000", "111405.586000", "111405.589000", "111405.592000", "111405.596000", "111405.599000", "111405.602000", "111405.605000", "111405.608000", "111405.611000", "111405.614000", "111405.618000", "111405.621000", "111445.558000", "111445.560000", "111445.563000", "111445.566000", "111445.568000", "111445.571000", "111445.573000", "111445.576000", "111445.578000", "111445.581000", "111445.584000", "111445.586000", "111445.589000", "111445.591000", "111445.594000", "111445.597000", "111445.599000", "111445.602000", "111445.604000", "111445.607000", "111525.558000", "111525.560000", "111525.563000", "111525.565000", "111525.568000", "111525.570000", "111525.573000", "111525.575000", "111525.577000", "111525.580000", "111525.582000", "111525.585000", "111525.587000", "111525.590000", "111525.592000", "111525.595000", "111525.597000", "111525.599000", "111525.602000", "111525.604000", "111605.564000", "111605.567000", "111605.571000", "111605.574000", "111605.577000", "111605.580000", "111605.584000", "111605.587000", "111605.590000", "111605.600000", "111605.604000", "111605.607000", "111605.610000", "111605.613000", "111605.617000", "111605.620000", "111605.623000", "111605.626000", "111605.630000", "111605.633000", "111645.558000", "111645.561000", "111645.564000", "111645.566000", "111645.569000", "111645.571000", "111645.574000", "111645.576000", "111645.579000", "111645.581000", "111645.584000", "111645.587000", "111645.589000", "111645.592000", "111645.594000", "111645.597000", "111645.599000", "111645.602000", "111645.605000", "111645.607000", "111725.558000", "111725.561000", "111725.564000", "111725.567000", "111725.569000", "111725.572000", "111725.574000", "111725.577000", "111725.580000", "111725.583000", "111725.585000", "111725.588000", "111725.590000", "111725.606000", "111725.609000", "111725.612000", "111725.614000", "111725.617000", "111725.619000", "111725.622000", "111805.559000", "111805.562000", "111805.565000", "111805.567000", "111805.569000", "111805.572000", "111805.574000", "111805.577000", "111805.579000", "111805.591000", "111805.593000", "111805.596000", "111805.598000", "111805.600000", "111805.603000", "111805.605000", "111805.608000", "111805.610000", "111805.613000", "111805.615000", "111845.558000", "111845.560000", "111845.568000", "111845.571000", "111845.573000", "111845.576000", "111845.578000", "111845.581000", "111845.583000", "111845.585000", "111845.588000", "111845.590000", "111845.593000", "111845.595000", "111845.598000", "111845.600000", "111845.602000", "111845.605000", "111845.607000", "111845.610000", "111911.796000", "111911.799000", "111911.801000", "111911.804000", "111911.806000", "111911.809000", "111911.812000", "111911.814000", "111911.816000", "111911.819000", "111911.821000", "111911.824000", "111911.830000", "111911.834000"],
      "InstanceCreationTime": ["111205.574000", "111205.579000", "111205.582000", "111205.587000", "111205.590000", "111205.593000", "111205.596000", "111205.599000", "111205.602000", "111205.605000", "111205.609000", "111205.612000", "111205.614000", "111205.618000", "111205.621000", "111205.624000", "111205.627000", "111205.630000", "111205.634000", "111205.637000", "111205.640000", "111205.643000", "111205.659000", "111245.558000", "111245.561000", "111245.564000", "111245.566000", "111245.569000", "111245.571000", "111245.574000", "111245.576000", "111245.579000", "111245.582000", "111245.584000", "111245.587000", "111245.589000", "111245.592000", "111245.594000", "111245.606000", "111245.609000", "111245.611000", "111245.614000", "111245.616000", "111325.559000", "111325.561000", "111325.564000", "111325.566000", "111325.569000", "111325.571000", "111325.573000", "111325.576000", "111325.578000", "111325.581000", "111325.583000", "111325.585000", "111325.588000", "111325.590000", "111325.593000", "111325.595000", "111325.598000", "111325.600000", "111325.602000", "111325.605000", "111405.559000", "111405.564000", "111405.567000", "111405.570000", "111405.574000", "111405.577000", "111405.580000", "111405.583000", "111405.586000", "111405.589000", "111405.592000", "111405.596000", "111405.599000", "111405.602000", "111405.605000", "111405.608000", "111405.611000", "111405.614000", "111405.618000", "111405.621000", "111445.558000", "111445.560000", "111445.563000", "111445.566000", "111445.568000", "111445.571000", "111445.573000", "111445.576000", "111445.578000", "111445.581000", "111445.584000", "111445.586000", "111445.589000", "111445.591000", "111445.594000", "111445.597000", "111445.599000", "111445.602000", "111445.604000", "111445.607000", "111525.558000", "111525.560000", "111525.563000", "111525.565000", "111525.568000", "111525.570000", "111525.573000", "111525.575000", "111525.577000", "111525.580000", "111525.582000", "111525.585000", "111525.587000", "111525.590000", "111525.592000", "111525.595000", "111525.597000", "111525.599000", "111525.602000", "111525.604000", "111605.564000", "111605.567000", "111605.571000", "111605.574000", "111605.577000", "111605.580000", "111605.584000", "111605.587000", "111605.590000", "111605.600000", "111605.604000", "111605.607000", "111605.610000", "111605.613000", "111605.617000", "111605.620000", "111605.623000", "111605.626000", "111605.630000", "111605.633000", "111645.558000", "111645.561000", "111645.564000", "111645.566000", "111645.569000", "111645.571000", "111645.574000", "111645.576000", "111645.579000", "111645.581000", "111645.584000", "111645.587000", "111645.589000", "111645.592000", "111645.594000", "111645.597000", "111645.599000", "111645.602000", "111645.605000", "111645.607000", "111725.558000", "111725.561000", "111725.564000", "111725.567000", "111725.569000", "111725.572000", "111725.574000", "111725.577000", "111725.580000", "111725.583000", "111725.585000", "111725.588000", "111725.590000", "111725.606000", "111725.609000", "111725.612000", "111725.614000", "111725.617000", "111725.619000", "111725.622000", "111805.559000", "111805.562000", "111805.565000", "111805.567000", "111805.569000", "111805.572000", "111805.574000", "111805.577000", "111805.579000", "111805.591000", "111805.593000", "111805.596000", "111805.598000", "111805.600000", "111805.603000", "111805.605000", "111805.608000", "111805.610000", "111805.613000", "111805.615000", "111845.558000", "111845.560000", "111845.568000", "111845.571000", "111845.573000", "111845.576000", "111845.578000", "111845.581000", "111845.583000", "111845.585000", "111845.588000", "111845.590000", "111845.593000", "111845.595000", "111845.598000", "111845.600000", "111845.602000", "111845.605000", "111845.607000", "111845.610000", "111911.796000", "111911.799000", "111911.801000", "111911.804000", "111911.806000", "111911.809000", "111911.812000", "111911.814000", "111911.816000", "111911.819000", "111911.821000", "111911.824000", "111911.830000", "111911.834000"],
      "InstanceNumber": [1, 2, 3, 4, 5, 6, 7, 8, 9, 10, 11, 12, 13, 14, 15, 16, 17, 18, 19, 20, 21, 22, 23, 24, 25, 26, 27, 28, 29, 30, 31, 32, 33, 34, 35, 36, 37, 38, 39, 40, 41, 42, 43, 44, 45, 46, 47, 48, 49, 50, 51, 52, 53, 54, 55, 56, 57, 58, 59, 60, 61, 62, 63, 64, 65, 66, 67, 68, 69, 70, 71, 72, 73, 74, 75, 76, 77, 78, 79, 80, 81, 82, 83, 84, 85, 86, 87, 88, 89, 90, 91, 92, 93, 94, 95, 96, 97, 98, 99, 100, 101, 102, 103, 104, 105, 106, 107, 108, 109, 110, 111, 112, 113, 114, 115, 116, 117, 118, 119, 120, 121, 122, 123, 124, 125, 126, 127, 128, 129, 130, 131, 132, 133, 134, 135, 136, 137, 138, 139, 140, 141, 142, 143, 144, 145, 146, 147, 148, 149, 150, 151, 152, 153, 154, 155, 156, 157, 158, 159, 160, 161, 162, 163, 164, 165, 166, 167, 168, 169, 170, 171, 172, 173, 174, 175, 176, 177, 178, 179, 180, 181, 182, 183, 184, 185, 186, 187, 188, 189, 190, 191, 192, 193, 194, 195, 196, 197, 198, 199, 200, 201, 202, 203, 204, 205, 206, 207, 208, 209, 210, 211, 212, 213, 214, 215, 216, 217, 218, 219, 220, 221, 222, 223, 224, 225, 226, 227, 228, 229, 230, 231, 232, 233, 234, 235, 236, 237],
      "LargestImagePixelValue": [3321, 2276, 2516, 2017, 2780, 2308, 2505, 2420, 2072, 2841, 2263, 2027, 1922, 3187, 2110, 1905, 2325, 2734, 2765, 1923, 2011, 1948, 2700, 2829, 2165, 2690, 2201, 2467, 2045, 2399, 2984, 1990, 2159, 2356, 2164, 2763, 2150, 2007, 2708, 1933, 2775, 2195, 1942, 2404, 2485, 2019, 2772, 2653, 2452, 1961, 2324, 2867, 2265, 1915, 2227, 2474, 2207, 2492, 3089, 2108, 1922, 2525, 2659, 2120, 2844, 2350, 1913, 2014, 2683, 2476, 2211, 1957, 1960, 3259, 2424, 1948, 2028, 2808, 1976, 2023, 3176, 2182, 1943, 2870, 2997, 2222, 1922, 2017, 2922, 2166, 1915, 2168, 2602, 1943, 2199, 2900, 2207, 1901, 2373, 1999, 1929, 2646, 3217, 2385, 2828, 2063, 1938, 2974, 1946, 2747, 2019, 1915, 2211, 2686, 2100, 1936, 2691, 2109, 2882, 2521, 2051, 2204, 3162, 2086, 1955, 2570, 2369, 2907, 2193, 2090, 2043, 3153, 2250, 1996, 1987, 1953, 3109, 2079, 1944, 2141, 2280, 1990, 1976, 1961, 2683, 2693, 2418, 2024, 2444, 2404, 2085, 1969, 2405, 1932, 2635, 2067, 3047, 2177, 1942, 2276, 2091, 3114, 2219, 1955, 3096, 2190, 1966, 2985, 2317, 2752, 2209, 1975, 2522, 2562, 1974, 2731, 2399, 2027, 1975, 2692, 2621, 3207, 2001, 1941, 2786, 1932, 2395, 1924, 2261, 1917, 2450, 1931, 2477, 2021, 2588, 1925, 2534, 1952, 2777, 2417, 2874, 1968, 1922, 2770, 2460, 1943, 2228, 2271, 2123, 2976, 1998, 1931, 2126, 2541, 1930, 1911, 2354, 2094, 1933, 2500, 2721, 2161, 2120, 1952, 2311, 1950, 2278, 3273, 2399, 2036, 2014, 2184, 1929, 2651, 2075, 2376, 2042],
      "WindowCenter": [768.0, 765.0, 765.0, 764.0, 765.0, 765.0, 765.0, 766.0, 766.0, 766.0, 765.0, 765.0, 764.0, 766.0, 765.0, 765.0, 766.0, 765.0, 764.0, 763.0, 765.0, 766.0, 766.0, 765.0, 764.0, 765.0, 765.0, 766.0, 766.0, 766.0, 766.0, 764.0, 765.0, 766.0, 766.0, 766.0, 765.0, 765.0, 766.0, 765.0, 765.0, 765.0, 765.0, 766.0, 766.0, 766.0, 766.0, 766.0, 766.0, 765.0, 765.0, 766.0, 765.0, 764.0, 765.0, 766.0, 766.0, 767.0, 766.0, 765.0, 764.0, 765.0, 766.0, 766.0, 766.0, 765.0, 765.0, 766.0, 767.0, 766.0, 765.0, 765.0, 765.0, 767.0, 765.0, 765.0, 765.0, 767.0, 766.0, 765.0, 766.0, 765.0, 765.0, 766.0, 766.0, 765.0, 765.0, 765.0, 767.0, 766.0, 765.0, 766.0, 767.0, 766.0, 766.0, 766.0, 765.0, 765.0, 765.0, 766.0, 767.0, 768.0, 767.0, 765.0, 765.0, 765.0, 765.0, 766.0, 765.0, 765.0, 764.0, 765.0, 766.0, 766.0, 765.0, 765.0, 767.0, 766.0, 766.0, 766.0, 766.0, 765.0, 766.0, 765.0, 765.0, 767.0, 767.0, 767.0, 766.0, 767.0, 767.0, 766.0, 764.0, 763.0, 763.0, 764.0, 766.0, 764.0, 764.0, 765.0, 766.0, 765.0, 765.0, 766.0, 766.0, 766.0, 766.0, 766.0, 766.0, 766.0, 767.0, 767.0, 767.0, 765.0, 766.0, 766.0, 767.0, 765.0, 765.0, 766.0, 766.0, 767.0, 766.0, 766.0, 766.0, 765.0, 765.0, 767.0, 766.0, 766.0, 766.0, 766.0, 766.0, 765.0, 765.0, 766.0, 766.0, 765.0, 765.0, 767.0, 765.0, 764.0, 762.0, 762.0, 765.0, 764.0, 764.0, 764.0, 765.0, 765.0, 766.0, 765.0, 767.0, 767.0, 767.0, 765.0, 766.0, 766.0, 767.0, 767.0, 766.0, 765.0, 766.0, 767.0, 766.0, 764.0, 765.0, 766.0, 766.0, 766.0, 765.0, 766.0, 766.0, 766.0, 765.0, 766.0, 767.0, 766.0, 765.0, 766.0, 767.0, 766.0, 766.0, 765.0, 765.0, 765.0, 765.0, 767.0, 765.0, 765.0, 765.0, 765.0, 765.0, 766.0, 766.0, 767.0, 761.0],
      "WindowWidth": [1736.0, 1721.0, 1722.0, 1718.0, 1725.0, 1722.0, 1723.0, 1725.0, 1724.0, 1728.0, 1721.0, 1719.0, 1718.0, 1730.0, 1720.0, 1720.0, 1724.0, 1723.0, 1721.0, 1713.0, 1719.0, 1722.0, 1726.0, 1724.0, 1719.0, 1723.0, 1723.0, 1726.0, 1723.0, 1724.0, 1726.0, 1718.0, 1720.0, 1726.0, 1725.0, 1727.0, 1722.0, 1722.0, 1728.0, 1719.0, 1726.0, 1722.0, 1720.0, 1725.0, 1727.0, 1724.0, 1728.0, 1727.0, 1725.0, 1721.0, 1722.0, 1726.0, 1721.0, 1716.0, 1721.0, 1726.0, 1726.0, 1729.0, 1729.0, 1719.0, 1717.0, 1723.0, 1727.0, 1722.0, 1726.0, 1722.0, 1719.0, 1722.0, 1728.0, 1725.0, 1722.0, 1720.0, 1721.0, 1731.0, 1723.0, 1720.0, 1721.0, 1730.0, 1722.0, 1721.0, 1729.0, 1722.0, 1720.0, 1728.0, 1728.0, 1722.0, 1718.0, 1721.0, 1729.0, 1723.0, 1721.0, 1725.0, 1728.0, 1722.0, 1725.0, 1728.0, 1721.0, 1718.0, 1722.0, 1723.0, 1726.0, 1731.0, 1731.0, 1721.0, 1725.0, 1720.0, 1720.0, 1728.0, 1719.0, 1724.0, 1718.0, 1720.0, 1723.0, 1725.0, 1720.0, 1721.0, 1729.0, 1724.0, 1729.0, 1726.0, 1722.0, 1721.0, 1729.0, 1720.0, 1720.0, 1728.0, 1727.0, 1732.0, 1726.0, 1726.0, 1726.0, 1729.0, 1715.0, 1712.0, 1714.0, 1717.0, 1728.0, 1718.0, 1717.0, 1720.0, 1723.0, 1721.0, 1721.0, 1721.0, 1727.0, 1728.0, 1725.0, 1722.0, 1725.0, 1726.0, 1726.0, 1727.0, 1727.0, 1721.0, 1727.0, 1724.0, 1730.0, 1721.0, 1720.0, 1726.0, 1724.0, 1730.0, 1724.0, 1722.0, 1729.0, 1721.0, 1721.0, 1732.0, 1725.0, 1727.0, 1724.0, 1723.0, 1725.0, 1723.0, 1720.0, 1728.0, 1726.0, 1721.0, 1721.0, 1728.0, 1722.0, 1719.0, 1708.0, 1710.0, 1724.0, 1714.0, 1718.0, 1716.0, 1722.0, 1720.0, 1724.0, 1719.0, 1728.0, 1725.0, 1728.0, 1720.0, 1726.0, 1724.0, 1732.0, 1727.0, 1728.0, 1721.0, 1724.0, 1732.0, 1724.0, 1717.0, 1720.0, 1724.0, 1723.0, 1728.0, 1720.0, 1721.0, 1722.0, 1726.0, 1720.0, 1722.0, 1729.0, 1724.0, 1720.0, 1726.0, 1729.0, 1725.0, 1723.0, 1719.0, 1722.0, 1720.0, 1722.0, 1731.0, 1723.0, 1721.0, 1722.0, 1721.0, 1720.0, 1727.0, 1723.0, 1727.0, 1704.0]
    },
    "slices": {}
  }
}