{
  "AcquisitionMatrixPE": 70,
  "AcquisitionNumber": 1,
  "AcquisitionTime": "10:50:43.557500",
  "BandwidthPerPixelPhaseEncode": 38.873,
  "BaseResolution": 70,
  "BodyPartExamined": "HEAD",
  "ConsistencyInfo": "N4_VE11B_LATEST_20150530",
  "ConversionSoftware": "dcm2niix",
  "ConversionSoftwareVersion": "v1.0.20190410  GCC6.3.0",
  "DerivedVendorReportedEchoSpacing": 0.000489996,
  "DeviceSerialNumber": "66088",
  "DwellTime": 2.9e-06,
  "EchoTime": 0.03,
  "EchoTrainLength": 53,
  "EffectiveEchoSpacing": 0.000367497,
  "FlipAngle": 90,
  "ImageOrientationPatientDICOM": [0.999685, -0.000377934, 0.0250804, 0.00872414, 0.942699, -0.333532],
  "ImageType": [
    "ORIGINAL",
    "PRIMARY",
    "M",
    "ND",
    "NORM",
    "MOSAIC"
],
  "ImagingFrequency": 123.191,
  "InPlanePhaseEncodingDirectionDICOM": "COL",
  "InstitutionAddress": "Street_StreetNo_City_District_IR_ZIP",
  "InstitutionName": "NBML",
  "InstitutionalDepartmentName": "Department",
  "MRAcquisitionType": "2D",
  "MagneticFieldStrength": 3,
  "Manufacturer": "Siemens",
  "ManufacturersModelName": "Prisma",
  "Modality": "MR",
  "ParallelReductionFactorInPlane": 2,
  "PartialFourier": 1,
  "PatientPosition": "HFS",
  "PercentPhaseFOV": 100,
  "PhaseEncodingDirection": "j-",
  "PhaseEncodingSteps": 105,
  "PhaseOversampling": 0.5,
  "PhaseResolution": 1,
  "PixelBandwidth": 2465,
  "ProcedureStepDescription": "NBML_Project_Dr_Khaligh",
  "ProtocolName": "ep2d_p2_Task_3.5_measurment:237",
  "PulseSequenceDetails": "%SiemensSeq%_ep2d_pace",
  "ReceiveCoilActiveElements": "HC1-7",
  "ReceiveCoilName": "HeadNeck_64",
  "ReconMatrixPE": 70,
  "RefLinesPE": 24,
  "RepetitionTime": 2,
  "SAR": 0.0997714,
  "ScanOptions": "FS",
  "ScanningSequence": "EP",
  "SequenceName": "_epfid2d1_70",
  "SequenceVariant": "SK_OSP",
  "SeriesDescription": "ep2d_p2_Task_3.5_measurment:237",
  "SeriesNumber": 5,
  "ShimSetting": [2605, -4465, -3241, 506, 16, 112, -26, 11],
  "SliceThickness": 3.5,
  "SliceTiming": [0.99, 0, 1.05, 0.06, 1.1075, 0.1175, 1.165, 0.175, 1.2225, 0.2325, 1.2825, 0.2925, 1.34, 0.35, 1.3975, 0.4075, 1.4575, 0.4675, 1.515, 0.525, 1.5725, 0.5825, 1.63, 0.6425, 1.69, 0.7, 1.7475, 0.7575, 1.805, 0.815, 1.865, 0.875, 1.9225, 0.9325],
  "SoftwareVersions": "syngo_MR_E11",
  "SpacingBetweenSlices": 3.85,
  "StationName": "AWP66088",
  "TaskName": "categorySelectivity",
  "TotalReadoutTime": 0.0253573,
  "TxRefAmp": 222.708,
  "dcmmeta_affine": [
    [-3.5417425632476807, 0.030908390879631042, 0.09054140001535416, 120.28458404541016],
    [0.0013389670057222247, 3.33984637260437, -1.2845348119735718, -87.32678985595703],
    [0.08885643631219864, 1.1816545724868774, 3.628260374069214, -82.14836120605469],
    [0.0, 0.0, 0.0, 1.0]
],
  "dcmmeta_reorient_transform": [
    [0.0, -1.0, 0.0, 69.0],
    [1.0, 0.0, 0.0, 0.0],
    [0.0, 0.0, 1.0, 0.0],
    [0.0, 0.0, 0.0, 1.0]
],
  "dcmmeta_shape": [70, 70, 34, 237],
  "dcmmeta_slice_dim": 2,
  "dcmmeta_version": 0.6,
  "global": {
    "const": {
      "AccessionNumber": "BRZ",
      "AcquisitionMatrix": [70, 0, 0, 70],
      "AngioFlag": "N",
      "BitsAllocated": 16,
      "BitsStored": 12,
      "BodyPartExamined": "HEAD",
      "Columns": 420,
      "EchoNumbers": 1,
      "EchoTime": 30.0,
      "EchoTrainLength": 53,
      "FlipAngle": 90.0,
      "HighBit": 11,
      "ImageOrientationPatient": [0.99968536470255, -0.0003779342299, 0.02508044587437, 0.00872414271927, 0.94269857385881, -0.3335315400054],
      "ImagePositionPatient": [-747.63116263894, -727.36141021391, 190.62548658704],
      "ImageType": [
        "ORIGINAL",
        "PRIMARY",
        "M",
        "ND",
        "NORM",
        "MOSAIC"
],
      "ImagedNucleus": "1H",
      "ImagingFrequency": 123.191172,
      "InPlanePhaseEncodingDirection": "COL",
      "MRAcquisitionType": "2D",
      "MagneticFieldStrength": 3.0,
      "Manufacturer": "SIEMENS",
      "ManufacturerModelName": "Prisma",
      "Modality": "MR",
      "NumberOfAverages": 1.0,
      "NumberOfPhaseEncodingSteps": 105,
      "PercentPhaseFieldOfView": 100.0,
      "PercentSampling": 100.0,
      "PerformedProcedureStepStartTime": "102435.176000",
      "PhotometricInterpretation": "MONOCHROME2",
      "PixelBandwidth": 2465.0,
      "PixelRepresentation": 0,
      "PixelSpacing": [3.542857170105, 3.542857170105],
      "ProtocolName": "ep2d_p2_Task_3.5_measurment:237",
      "RepetitionTime": 2000.0,
      "Rows": 420,
      "SAR": 0.09977141773887,
      "SamplesPerPixel": 1,
      "ScanOptions": "FS",
      "ScanningSequence": "EP",
      "SequenceName": "*epfid2d1_70",
      "SequenceVariant": [
        "SK",
        "OSP"
],
      "SeriesDescription": "ep2d_p2_Task_3.5_measurment:237",
      "SeriesNumber": 5,
      "SeriesTime": "105142.719000",
      "SliceLocation": -45.452102698653,
      "SliceThickness": 3.5,
      "SmallestImagePixelValue": 0,
      "SoftwareVersions": "syngo MR E11",
      "SpacingBetweenSlices": 3.8500000221207,
      "SpecificCharacterSet": "ISO_IR 100",
      "StudyID": "1",
      "StudyTime": "102435.130000",
      "TransmitCoilName": "Body",
      "VariableFlipAngleFlag": "N",
      "WindowCenterWidthExplanation": "Algo1",
      "dBdt": 0.0},
    "slices": {}
  },
  "time": {
    "samples": {
      "AcquisitionNumber": [1, 2, 3, 4, 5, 6, 7, 8, 9, 10, 11, 12, 13, 14, 15, 16, 17, 18, 19, 20, 21, 22, 23, 24, 25, 26, 27, 28, 29, 30, 31, 32, 33, 34, 35, 36, 37, 38, 39, 40, 41, 42, 43, 44, 45, 46, 47, 48, 49, 50, 51, 52, 53, 54, 55, 56, 57, 58, 59, 60, 61, 62, 63, 64, 65, 66, 67, 68, 69, 70, 71, 72, 73, 74, 75, 76, 77, 78, 79, 80, 81, 82, 83, 84, 85, 86, 87, 88, 89, 90, 91, 92, 93, 94, 95, 96, 97, 98, 99, 100, 101, 102, 103, 104, 105, 106, 107, 108, 109, 110, 111, 112, 113, 114, 115, 116, 117, 118, 119, 120, 121, 122, 123, 124, 125, 126, 127, 128, 129, 130, 131, 132, 133, 134, 135, 136, 137, 138, 139, 140, 141, 142, 143, 144, 145, 146, 147, 148, 149, 150, 151, 152, 153, 154, 155, 156, 157, 158, 159, 160, 161, 162, 163, 164, 165, 166, 167, 168, 169, 170, 171, 172, 173, 174, 175, 176, 177, 178, 179, 180, 181, 182, 183, 184, 185, 186, 187, 188, 189, 190, 191, 192, 193, 194, 195, 196, 197, 198, 199, 200, 201, 202, 203, 204, 205, 206, 207, 208, 209, 210, 211, 212, 213, 214, 215, 216, 217, 218, 219, 220, 221, 222, 223, 224, 225, 226, 227, 228, 229, 230, 231, 232, 233, 234, 235, 236, 237],
      "AcquisitionTime": ["105043.557500", "105045.557500", "105047.557500", "105049.557500", "105051.557500", "105053.557500", "105055.557500", "105057.557500", "105059.557500", "105101.557500", "105103.557500", "105105.557500", "105107.557500", "105109.557500", "105111.557500", "105113.557500", "105115.557500", "105117.557500", "105119.557500", "105121.557500", "105123.557500", "105125.557500", "105127.557500", "105129.557500", "105131.557500", "105133.557500", "105135.557500", "105137.557500", "105139.557500", "105141.557500", "105143.557500", "105145.557500", "105147.557500", "105149.557500", "105151.557500", "105153.557500", "105155.557500", "105157.557500", "105159.557500", "105201.557500", "105203.557500", "105205.557500", "105207.557500", "105209.557500", "105211.557500", "105213.557500", "105215.557500", "105217.557500", "105219.557500", "105221.557500", "105223.557500", "105225.557500", "105227.557500", "105229.557500", "105231.557500", "105233.557500", "105235.557500", "105237.557500", "105239.557500", "105241.557500", "105243.557500", "105245.557500", "105247.557500", "105249.557500", "105251.557500", "105253.557500", "105255.557500", "105257.557500", "105259.557500", "105301.557500", "105303.557500", "105305.557500", "105307.557500", "105309.557500", "105311.557500", "105313.557500", "105315.557500", "105317.557500", "105319.557500", "105321.557500", "105323.557500", "105325.557500", "105327.557500", "105329.557500", "105331.557500", "105333.557500", "105335.557500", "105337.557500", "105339.557500", "105341.557500", "105343.557500", "105345.557500", "105347.557500", "105349.557500", "105351.557500", "105353.557500", "105355.557500", "105357.557500", "105359.557500", "105401.557500", "105403.557500", "105405.557500", "105407.557500", "105409.557500", "105411.557500", "105413.557500", "105415.557500", "105417.557500", "105419.557500", "105421.557500", "105423.557500", "105425.557500", "105427.557500", "105429.557500", "105431.557500", "105433.557500", "105435.557500", "105437.557500", "105439.557500", "105441.557500", "105443.557500", "105445.557500", "105447.557500", "105449.557500", "105451.557500", "105453.557500", "105455.557500", "105457.557500", "105459.557500", "105501.557500", "105503.557500", "105505.557500", "105507.557500", "105509.557500", "105511.557500", "105513.557500", "105515.557500", "105517.557500", "105519.557500", "105521.557500", "105523.557500", "105525.557500", "105527.557500", "105529.557500", "105531.557500", "105533.557500", "105535.557500", "105537.557500", "105539.557500", "105541.557500", "105543.557500", "105545.557500", "105547.557500", "105549.557500", "105551.557500", "105553.557500", "105555.557500", "105557.557500", "105559.557500", "105601.557500", "105603.557500", "105605.557500", "105607.557500", "105609.557500", "105611.557500", "105613.557500", "105615.557500", "105617.557500", "105619.557500", "105621.557500", "105623.557500", "105625.557500", "105627.557500", "105629.557500", "105631.557500", "105633.557500", "105635.557500", "105637.557500", "105639.557500", "105641.557500", "105643.557500", "105645.557500", "105647.557500", "105649.557500", "105651.557500", "105653.557500", "105655.557500", "105657.557500", "105659.557500", "105701.557500", "105703.557500", "105705.557500", "105707.557500", "105709.557500", "105711.557500", "105713.557500", "105715.557500", "105717.557500", "105719.557500", "105721.557500", "105723.557500", "105725.557500", "105727.557500", "105729.557500", "105731.557500", "105733.557500", "105735.557500", "105737.557500", "105739.557500", "105741.557500", "105743.557500", "105745.557500", "105747.557500", "105749.557500", "105751.557500", "105753.557500", "105755.557500", "105757.557500", "105759.557500", "105801.557500", "105803.557500", "105805.557500", "105807.557500", "105809.557500", "105811.557500", "105813.557500", "105815.557500", "105817.557500", "105819.557500", "105821.557500", "105823.557500", "105825.557500", "105827.557500", "105829.557500", "105831.557500", "105833.557500", "105835.557500"],
      "ContentTime": ["105142.723000", "105142.727000", "105142.730000", "105142.734000", "105142.737000", "105142.741000", "105142.744000", "105142.747000", "105142.750000", "105142.763000", "105142.766000", "105142.769000", "105142.773000", "105142.776000", "105142.779000", "105142.782000", "105142.786000", "105142.789000", "105142.792000", "105142.796000", "105142.799000", "105142.802000", "105142.805000", "105142.808000", "105142.812000", "105142.819000", "105142.822000", "105142.825000", "105142.829000", "105222.715000", "105222.719000", "105222.722000", "105222.725000", "105222.728000", "105222.731000", "105222.735000", "105222.738000", "105222.748000", "105222.751000", "105222.754000", "105222.758000", "105222.761000", "105222.764000", "105222.767000", "105222.771000", "105222.775000", "105222.779000", "105222.782000", "105222.786000", "105302.715000", "105302.719000", "105302.723000", "105302.726000", "105302.729000", "105302.733000", "105302.736000", "105302.739000", "105302.742000", "105302.746000", "105302.749000", "105302.752000", "105302.756000", "105302.759000", "105302.762000", "105302.765000", "105302.768000", "105302.772000", "105302.775000", "105302.778000", "105342.715000", "105342.719000", "105342.722000", "105342.725000", "105342.728000", "105342.731000", "105342.734000", "105342.737000", "105342.740000", "105342.744000", "105342.747000", "105342.750000", "105342.753000", "105342.757000", "105342.760000", "105342.763000", "105342.766000", "105342.769000", "105342.772000", "105342.777000", "105422.715000", "105422.719000", "105422.722000", "105422.725000", "105422.730000", "105422.733000", "105422.736000", "105422.740000", "105422.743000", "105422.760000", "105422.763000", "105422.766000", "105422.769000", "105422.772000", "105422.776000", "105422.779000", "105422.782000", "105422.786000", "105422.790000", "105422.793000", "105502.716000", "105502.720000", "105502.723000", "105502.726000", "105502.730000", "105502.733000", "105502.736000", "105502.739000", "105502.743000", "105502.746000", "105502.749000", "105502.753000", "105502.757000", "105502.760000", "105502.763000", "105502.767000", "105502.770000", "105502.773000", "105502.776000", "105502.780000", "105542.715000", "105542.719000", "105542.723000", "105542.726000", "105542.730000", "105542.733000", "105542.736000", "105542.740000", "105542.743000", "105542.746000", "105542.749000", "105542.753000", "105542.756000", "105542.759000", "105542.762000", "105542.767000", "105542.770000", "105542.773000", "105542.776000", "105542.780000", "105622.714000", "105622.717000", "105622.721000", "105622.724000", "105622.727000", "105622.730000", "105622.733000", "105622.737000", "105622.741000", "105622.744000", "105622.747000", "105622.750000", "105622.753000", "105622.757000", "105622.760000", "105622.763000", "105622.766000", "105622.769000", "105622.772000", "105622.775000", "105702.715000", "105702.719000", "105702.722000", "105702.726000", "105702.730000", "105702.733000", "105702.736000", "105702.740000", "105702.743000", "105702.748000", "105702.751000", "105702.754000", "105702.758000", "105702.762000", "105702.765000", "105702.770000", "105702.773000", "105702.779000", "105702.782000", "105702.790000", "105742.718000", "105742.721000", "105742.725000", "105742.728000", "105742.731000", "105742.734000", "105742.738000", "105742.742000", "105742.745000", "105742.748000", "105742.754000", "105742.757000", "105742.760000", "105742.763000", "105742.767000", "105742.770000", "105742.773000", "105742.776000", "105742.780000", "105742.783000", "105822.715000", "105822.719000", "105822.722000", "105822.725000", "105822.728000", "105822.732000", "105822.735000", "105822.738000", "105822.741000", "105822.745000", "105822.748000", "105822.751000", "105822.754000", "105822.757000", "105822.761000", "105822.764000", "105822.767000", "105822.770000", "105822.773000", "105822.776000", "105837.529000", "105837.534000", "105837.539000", "105837.544000", "105837.547000", "105837.551000", "105837.559000", "105837.564000"],
      "InstanceCreationTime": ["105142.723000", "105142.727000", "105142.730000", "105142.734000", "105142.737000", "105142.741000", "105142.744000", "105142.747000", "105142.750000", "105142.763000", "105142.766000", "105142.769000", "105142.773000", "105142.776000", "105142.779000", "105142.782000", "105142.786000", "105142.789000", "105142.792000", "105142.796000", "105142.799000", "105142.802000", "105142.805000", "105142.808000", "105142.812000", "105142.819000", "105142.822000", "105142.825000", "105142.829000", "105222.715000", "105222.719000", "105222.722000", "105222.725000", "105222.728000", "105222.731000", "105222.735000", "105222.738000", "105222.748000", "105222.751000", "105222.754000", "105222.758000", "105222.761000", "105222.764000", "105222.767000", "105222.771000", "105222.775000", "105222.779000", "105222.782000", "105222.786000", "105302.715000", "105302.719000", "105302.723000", "105302.726000", "105302.729000", "105302.733000", "105302.736000", "105302.739000", "105302.742000", "105302.746000", "105302.749000", "105302.752000", "105302.756000", "105302.759000", "105302.762000", "105302.765000", "105302.768000", "105302.772000", "105302.775000", "105302.778000", "105342.715000", "105342.719000", "105342.722000", "105342.725000", "105342.728000", "105342.731000", "105342.734000", "105342.737000", "105342.740000", "105342.744000", "105342.747000", "105342.750000", "105342.753000", "105342.757000", "105342.760000", "105342.763000", "105342.766000", "105342.769000", "105342.772000", "105342.777000", "105422.715000", "105422.719000", "105422.722000", "105422.725000", "105422.730000", "105422.733000", "105422.736000", "105422.740000", "105422.743000", "105422.760000", "105422.763000", "105422.766000", "105422.769000", "105422.772000", "105422.776000", "105422.779000", "105422.782000", "105422.786000", "105422.790000", "105422.793000", "105502.716000", "105502.720000", "105502.723000", "105502.726000", "105502.730000", "105502.733000", "105502.736000", "105502.739000", "105502.743000", "105502.746000", "105502.749000", "105502.753000", "105502.757000", "105502.760000", "105502.763000", "105502.767000", "105502.770000", "105502.773000", "105502.776000", "105502.780000", "105542.715000", "105542.719000", "105542.723000", "105542.726000", "105542.730000", "105542.733000", "105542.736000", "105542.740000", "105542.743000", "105542.746000", "105542.749000", "105542.753000", "105542.756000", "105542.759000", "105542.762000", "105542.767000", "105542.770000", "105542.773000", "105542.776000", "105542.780000", "105622.714000", "105622.717000", "105622.721000", "105622.724000", "105622.727000", "105622.730000", "105622.733000", "105622.737000", "105622.741000", "105622.744000", "105622.747000", "105622.750000", "105622.753000", "105622.757000", "105622.760000", "105622.763000", "105622.766000", "105622.769000", "105622.772000", "105622.775000", "105702.715000", "105702.719000", "105702.722000", "105702.726000", "105702.730000", "105702.733000", "105702.736000", "105702.740000", "105702.743000", "105702.748000", "105702.751000", "105702.754000", "105702.758000", "105702.762000", "105702.765000", "105702.770000", "105702.773000", "105702.779000", "105702.782000", "105702.790000", "105742.718000", "105742.721000", "105742.725000", "105742.728000", "105742.731000", "105742.734000", "105742.738000", "105742.742000", "105742.745000", "105742.748000", "105742.754000", "105742.757000", "105742.760000", "105742.763000", "105742.767000", "105742.770000", "105742.773000", "105742.776000", "105742.780000", "105742.783000", "105822.715000", "105822.719000", "105822.722000", "105822.725000", "105822.728000", "105822.732000", "105822.735000", "105822.738000", "105822.741000", "105822.745000", "105822.748000", "105822.751000", "105822.754000", "105822.757000", "105822.761000", "105822.764000", "105822.767000", "105822.770000", "105822.773000", "105822.776000", "105837.529000", "105837.534000", "105837.539000", "105837.544000", "105837.547000", "105837.551000", "105837.559000", "105837.564000"],
      "InstanceNumber": [1, 2, 3, 4, 5, 6, 7, 8, 9, 10, 11, 12, 13, 14, 15, 16, 17, 18, 19, 20, 21, 22, 23, 24, 25, 26, 27, 28, 29, 30, 31, 32, 33, 34, 35, 36, 37, 38, 39, 40, 41, 42, 43, 44, 45, 46, 47, 48, 49, 50, 51, 52, 53, 54, 55, 56, 57, 58, 59, 60, 61, 62, 63, 64, 65, 66, 67, 68, 69, 70, 71, 72, 73, 74, 75, 76, 77, 78, 79, 80, 81, 82, 83, 84, 85, 86, 87, 88, 89, 90, 91, 92, 93, 94, 95, 96, 97, 98, 99, 100, 101, 102, 103, 104, 105, 106, 107, 108, 109, 110, 111, 112, 113, 114, 115, 116, 117, 118, 119, 120, 121, 122, 123, 124, 125, 126, 127, 128, 129, 130, 131, 132, 133, 134, 135, 136, 137, 138, 139, 140, 141, 142, 143, 144, 145, 146, 147, 148, 149, 150, 151, 152, 153, 154, 155, 156, 157, 158, 159, 160, 161, 162, 163, 164, 165, 166, 167, 168, 169, 170, 171, 172, 173, 174, 175, 176, 177, 178, 179, 180, 181, 182, 183, 184, 185, 186, 187, 188, 189, 190, 191, 192, 193, 194, 195, 196, 197, 198, 199, 200, 201, 202, 203, 204, 205, 206, 207, 208, 209, 210, 211, 212, 213, 214, 215, 216, 217, 218, 219, 220, 221, 222, 223, 224, 225, 226, 227, 228, 229, 230, 231, 232, 233, 234, 235, 236, 237],
      "LargestImagePixelValue": [1960, 2253, 2234, 2096, 2731, 3017, 3084, 3097, 2480, 2087, 2066, 2107, 2080, 2327, 2359, 2282, 2591, 2114, 2268, 2099, 2031, 2121, 3039, 2251, 2039, 2645, 2371, 2405, 2114, 2425, 2128, 2158, 2074, 2562, 1946, 2308, 2318, 2652, 2604, 2272, 2062, 1952, 2667, 2976, 2206, 2139, 2060, 2459, 2341, 3048, 2284, 1921, 2275, 2601, 2246, 2170, 2541, 2409, 2136, 2455, 2196, 2004, 3247, 2437, 3375, 2144, 2331, 2190, 3461, 2352, 2935, 2116, 1980, 2923, 2387, 2279, 2188, 2122, 3177, 2231, 2067, 2140, 2646, 2240, 3308, 2255, 3063, 2300, 2170, 2997, 2255, 1984, 3369, 2392, 2373, 2146, 2177, 2963, 2179, 2221, 3108, 2321, 2140, 2014, 2993, 2293, 2219, 1976, 2093, 2607, 2964, 2350, 1938, 2222, 3160, 2381, 2188, 2746, 2425, 2562, 2319, 2678, 1969, 2031, 2557, 2020, 2161, 2958, 3242, 2914, 2501, 2272, 1904, 2737, 2212, 2328, 3548, 2137, 2658, 2258, 2926, 2369, 2515, 2262, 3208, 2155, 2978, 2311, 2202, 2835, 2426, 2075, 2657, 3086, 2187, 1982, 2171, 3203, 2365, 2545, 2791, 2403, 2269, 2272, 2237, 2172, 1989, 3274, 3849, 2632, 2738, 2590, 2059, 1993, 2081, 1984, 2654, 2139, 2578, 2578, 2000, 2112, 2061, 2160, 1924, 2027, 1905, 2349, 2038, 2593, 2486, 2596, 2025, 2409, 2140, 2766, 2257, 2406, 1966, 2153, 1971, 2538, 1994, 2569, 2089, 2104, 1971, 2423, 2176, 2456, 1976, 2408, 2009, 2084, 2499, 2604, 2093, 2154, 2157, 2477, 2006, 1964, 2041, 2550, 1990, 1983, 2085, 2115, 2033, 2163, 2047, 1995, 2498, 2017, 2388, 2056, 1990],
      "WindowCenter": [767.0, 767.0, 766.0, 764.0, 763.0, 769.0, 766.0, 763.0, 761.0, 760.0, 762.0, 764.0, 764.0, 764.0, 764.0, 764.0, 765.0, 764.0, 764.0, 765.0, 765.0, 765.0, 766.0, 765.0, 761.0, 769.0, 765.0, 765.0, 764.0, 765.0, 765.0, 765.0, 764.0, 765.0, 765.0, 766.0, 766.0, 765.0, 766.0, 765.0, 764.0, 765.0, 765.0, 765.0, 764.0, 764.0, 765.0, 766.0, 766.0, 766.0, 764.0, 764.0, 765.0, 765.0, 765.0, 765.0, 766.0, 766.0, 765.0, 765.0, 765.0, 766.0, 767.0, 766.0, 766.0, 764.0, 765.0, 766.0, 766.0, 765.0, 765.0, 764.0, 766.0, 767.0, 765.0, 764.0, 764.0, 765.0, 766.0, 764.0, 764.0, 764.0, 765.0, 765.0, 766.0, 766.0, 766.0, 765.0, 766.0, 766.0, 765.0, 765.0, 768.0, 766.0, 765.0, 765.0, 765.0, 766.0, 765.0, 765.0, 766.0, 765.0, 765.0, 765.0, 767.0, 766.0, 766.0, 766.0, 765.0, 766.0, 767.0, 766.0, 766.0, 766.0, 767.0, 766.0, 766.0, 766.0, 766.0, 767.0, 767.0, 766.0, 765.0, 765.0, 766.0, 766.0, 765.0, 767.0, 766.0, 763.0, 762.0, 762.0, 763.0, 766.0, 765.0, 765.0, 766.0, 765.0, 766.0, 766.0, 766.0, 765.0, 766.0, 767.0, 767.0, 765.0, 766.0, 765.0, 765.0, 766.0, 765.0, 765.0, 765.0, 766.0, 765.0, 764.0, 766.0, 768.0, 766.0, 765.0, 766.0, 766.0, 765.0, 766.0, 765.0, 765.0, 765.0, 766.0, 765.0, 761.0, 764.0, 763.0, 763.0, 762.0, 764.0, 765.0, 766.0, 765.0, 766.0, 766.0, 760.0, 767.0, 765.0, 765.0, 765.0, 766.0, 766.0, 768.0, 767.0, 766.0, 765.0, 765.0, 764.0, 765.0, 765.0, 766.0, 765.0, 764.0, 764.0, 765.0, 765.0, 766.0, 765.0, 765.0, 765.0, 765.0, 766.0, 767.0, 766.0, 766.0, 765.0, 765.0, 765.0, 767.0, 767.0, 766.0, 763.0, 756.0, 769.0, 766.0, 765.0, 765.0, 766.0, 766.0, 765.0, 765.0, 766.0, 766.0, 765.0, 765.0, 765.0, 766.0, 766.0, 765.0, 766.0, 766.0, 766.0],
      "WindowWidth": [1727.0, 1728.0, 1726.0, 1717.0, 1717.0, 1738.0, 1727.0, 1717.0, 1710.0, 1705.0, 1711.0, 1716.0, 1719.0, 1720.0, 1720.0, 1719.0, 1723.0, 1718.0, 1720.0, 1722.0, 1720.0, 1721.0, 1727.0, 1722.0, 1709.0, 1739.0, 1723.0, 1722.0, 1720.0, 1725.0, 1722.0, 1720.0, 1718.0, 1725.0, 1722.0, 1728.0, 1725.0, 1726.0, 1726.0, 1722.0, 1719.0, 1721.0, 1725.0, 1725.0, 1718.0, 1720.0, 1722.0, 1728.0, 1726.0, 1728.0, 1719.0, 1717.0, 1722.0, 1725.0, 1720.0, 1720.0, 1725.0, 1725.0, 1722.0, 1723.0, 1723.0, 1725.0, 1733.0, 1725.0, 1729.0, 1719.0, 1723.0, 1724.0, 1732.0, 1721.0, 1724.0, 1717.0, 1726.0, 1730.0, 1721.0, 1719.0, 1719.0, 1723.0, 1729.0, 1719.0, 1716.0, 1718.0, 1725.0, 1720.0, 1731.0, 1723.0, 1728.0, 1724.0, 1726.0, 1729.0, 1722.0, 1722.0, 1735.0, 1725.0, 1724.0, 1721.0, 1723.0, 1729.0, 1721.0, 1722.0, 1729.0, 1722.0, 1721.0, 1722.0, 1731.0, 1724.0, 1723.0, 1722.0, 1722.0, 1727.0, 1730.0, 1725.0, 1723.0, 1727.0, 1733.0, 1726.0, 1724.0, 1728.0, 1727.0, 1729.0, 1726.0, 1727.0, 1720.0, 1720.0, 1727.0, 1721.0, 1724.0, 1731.0, 1727.0, 1718.0, 1713.0, 1712.0, 1713.0, 1726.0, 1721.0, 1721.0, 1730.0, 1719.0, 1726.0, 1724.0, 1728.0, 1723.0, 1727.0, 1728.0, 1733.0, 1719.0, 1726.0, 1723.0, 1721.0, 1726.0, 1723.0, 1720.0, 1725.0, 1728.0, 1720.0, 1718.0, 1724.0, 1736.0, 1726.0, 1724.0, 1726.0, 1725.0, 1722.0, 1724.0, 1723.0, 1721.0, 1719.0, 1730.0, 1727.0, 1708.0, 1720.0, 1716.0, 1714.0, 1710.0, 1717.0, 1719.0, 1726.0, 1722.0, 1726.0, 1727.0, 1705.0, 1729.0, 1719.0, 1720.0, 1720.0, 1723.0, 1725.0, 1731.0, 1727.0, 1727.0, 1724.0, 1724.0, 1719.0, 1722.0, 1720.0, 1727.0, 1724.0, 1721.0, 1717.0, 1721.0, 1722.0, 1727.0, 1721.0, 1724.0, 1719.0, 1721.0, 1725.0, 1730.0, 1725.0, 1726.0, 1721.0, 1724.0, 1722.0, 1727.0, 1729.0, 1729.0, 1712.0, 1694.0, 1735.0, 1725.0, 1721.0, 1720.0, 1724.0, 1727.0, 1720.0, 1720.0, 1725.0, 1724.0, 1720.0, 1720.0, 1723.0, 1724.0, 1727.0, 1722.0, 1726.0, 1724.0, 1723.0]
    },
    "slices": {}
  }
}