{
  "AcquisitionMatrixPE": 70,
  "AcquisitionNumber": 1,
  "AcquisitionTime": "10:32:50.125000",
  "BandwidthPerPixelPhaseEncode": 38.873,
  "BaseResolution": 70,
  "BodyPartExamined": "HEAD",
  "ConsistencyInfo": "N4_VE11B_LATEST_20150530",
  "ConversionSoftware": "dcm2niix",
  "ConversionSoftwareVersion": "v1.0.20190410  GCC6.3.0",
  "DerivedVendorReportedEchoSpacing": 0.000489996,
  "DeviceSerialNumber": "66088",
  "DwellTime": 2.9e-06,
  "EchoTime": 0.03,
  "EchoTrainLength": 53,
  "EffectiveEchoSpacing": 0.000367497,
  "FlipAngle": 90,
  "ImageOrientationPatientDICOM": [0.999685, -0.000377934, 0.0250804, 0.00872414, 0.942699, -0.333532],
  "ImageType": [
    "ORIGINAL",
    "PRIMARY",
    "M",
    "ND",
    "NORM",
    "MOSAIC"
],
  "ImagingFrequency": 123.191,
  "InPlanePhaseEncodingDirectionDICOM": "COL",
  "InstitutionAddress": "Street_StreetNo_City_District_IR_ZIP",
  "InstitutionName": "NBML",
  "InstitutionalDepartmentName": "Department",
  "MRAcquisitionType": "2D",
  "MagneticFieldStrength": 3,
  "Manufacturer": "Siemens",
  "ManufacturersModelName": "Prisma",
  "Modality": "MR",
  "ParallelReductionFactorInPlane": 2,
  "PartialFourier": 1,
  "PatientPosition": "HFS",
  "PercentPhaseFOV": 100,
  "PhaseEncodingDirection": "j-",
  "PhaseEncodingSteps": 105,
  "PhaseOversampling": 0.5,
  "PhaseResolution": 1,
  "PixelBandwidth": 2465,
  "ProcedureStepDescription": "NBML_Project_Dr_Khaligh",
  "ProtocolName": "ep2d_p2_Task_3.5_measurment:237",
  "PulseSequenceDetails": "%SiemensSeq%_ep2d_pace",
  "ReceiveCoilActiveElements": "HC1-7",
  "ReceiveCoilName": "HeadNeck_64",
  "ReconMatrixPE": 70,
  "RefLinesPE": 24,
  "RepetitionTime": 2,
  "SAR": 0.0997714,
  "ScanOptions": "FS",
  "ScanningSequence": "EP",
  "SequenceName": "_epfid2d1_70",
  "SequenceVariant": "SK_OSP",
  "SeriesDescription": "ep2d_p2_Task_3.5_measurment:237",
  "SeriesNumber": 3,
  "ShimSetting": [2605, -4465, -3241, 506, 16, 112, -26, 11],
  "SliceThickness": 3.5,
  "SliceTiming": [0.99, 0, 1.0475, 0.0575, 1.1075, 0.1175, 1.165, 0.175, 1.2225, 0.2325, 1.2825, 0.2925, 1.34, 0.35, 1.3975, 0.4075, 1.455, 0.465, 1.515, 0.525, 1.5725, 0.5825, 1.63, 0.64, 1.69, 0.7, 1.7475, 0.7575, 1.805, 0.815, 1.8625, 0.8725, 1.9225, 0.9325],
  "SoftwareVersions": "syngo_MR_E11",
  "SpacingBetweenSlices": 3.85,
  "StationName": "AWP66088",
  "TaskName": "categorySelectivity",
  "TotalReadoutTime": 0.0253573,
  "TxRefAmp": 222.708,
  "dcmmeta_affine": [
    [-3.5417425632476807, 0.030908390879631042, 0.09054140001535416, 120.28458404541016],
    [0.0013389670057222247, 3.33984637260437, -1.2845348119735718, -87.32678985595703],
    [0.08885643631219864, 1.1816545724868774, 3.628260374069214, -82.14836120605469],
    [0.0, 0.0, 0.0, 1.0]
],
  "dcmmeta_reorient_transform": [
    [0.0, -1.0, 0.0, 69.0],
    [1.0, 0.0, 0.0, 0.0],
    [0.0, 0.0, 1.0, 0.0],
    [0.0, 0.0, 0.0, 1.0]
],
  "dcmmeta_shape": [70, 70, 34, 237],
  "dcmmeta_slice_dim": 2,
  "dcmmeta_version": 0.6,
  "global": {
    "const": {
      "AccessionNumber": "BRZ",
      "AcquisitionMatrix": [70, 0, 0, 70],
      "AngioFlag": "N",
      "BitsAllocated": 16,
      "BitsStored": 12,
      "BodyPartExamined": "HEAD",
      "Columns": 420,
      "EchoNumbers": 1,
      "EchoTime": 30.0,
      "EchoTrainLength": 53,
      "FlipAngle": 90.0,
      "HighBit": 11,
      "ImageOrientationPatient": [0.99968536470255, -0.0003779342299, 0.02508044587437, 0.00872414271927, 0.94269857385881, -0.3335315400054],
      "ImagePositionPatient": [-747.63116263894, -727.36141021391, 190.62548658704],
      "ImageType": [
        "ORIGINAL",
        "PRIMARY",
        "M",
        "ND",
        "NORM",
        "MOSAIC"
],
      "ImagedNucleus": "1H",
      "ImagingFrequency": 123.191168,
      "InPlanePhaseEncodingDirection": "COL",
      "MRAcquisitionType": "2D",
      "MagneticFieldStrength": 3.0,
      "Manufacturer": "SIEMENS",
      "ManufacturerModelName": "Prisma",
      "Modality": "MR",
      "NumberOfAverages": 1.0,
      "NumberOfPhaseEncodingSteps": 105,
      "PercentPhaseFieldOfView": 100.0,
      "PercentSampling": 100.0,
      "PerformedProcedureStepStartTime": "102435.176000",
      "PhotometricInterpretation": "MONOCHROME2",
      "PixelBandwidth": 2465.0,
      "PixelRepresentation": 0,
      "PixelSpacing": [3.542857170105, 3.542857170105],
      "ProtocolName": "ep2d_p2_Task_3.5_measurment:237",
      "RepetitionTime": 2000.0,
      "Rows": 420,
      "SAR": 0.09977141773887,
      "SamplesPerPixel": 1,
      "ScanOptions": "FS",
      "ScanningSequence": "EP",
      "SequenceName": "*epfid2d1_70",
      "SequenceVariant": [
        "SK",
        "OSP"
],
      "SeriesDescription": "ep2d_p2_Task_3.5_measurment:237",
      "SeriesNumber": 3,
      "SeriesTime": "103348.566000",
      "SliceLocation": -45.452102698653,
      "SliceThickness": 3.5,
      "SmallestImagePixelValue": 0,
      "SoftwareVersions": "syngo MR E11",
      "SpacingBetweenSlices": 3.8500000221207,
      "SpecificCharacterSet": "ISO_IR 100",
      "StudyID": "1",
      "StudyTime": "102435.130000",
      "TransmitCoilName": "Body",
      "VariableFlipAngleFlag": "N",
      "WindowCenterWidthExplanation": "Algo1",
      "dBdt": 0.0},
    "slices": {}
  },
  "time": {
    "samples": {
      "AcquisitionNumber": [1, 2, 3, 4, 5, 6, 7, 8, 9, 10, 11, 12, 13, 14, 15, 16, 17, 18, 19, 20, 21, 22, 23, 24, 25, 26, 27, 28, 29, 30, 31, 32, 33, 34, 35, 36, 37, 38, 39, 40, 41, 42, 43, 44, 45, 46, 47, 48, 49, 50, 51, 52, 53, 54, 55, 56, 57, 58, 59, 60, 61, 62, 63, 64, 65, 66, 67, 68, 69, 70, 71, 72, 73, 74, 75, 76, 77, 78, 79, 80, 81, 82, 83, 84, 85, 86, 87, 88, 89, 90, 91, 92, 93, 94, 95, 96, 97, 98, 99, 100, 101, 102, 103, 104, 105, 106, 107, 108, 109, 110, 111, 112, 113, 114, 115, 116, 117, 118, 119, 120, 121, 122, 123, 124, 125, 126, 127, 128, 129, 130, 131, 132, 133, 134, 135, 136, 137, 138, 139, 140, 141, 142, 143, 144, 145, 146, 147, 148, 149, 150, 151, 152, 153, 154, 155, 156, 157, 158, 159, 160, 161, 162, 163, 164, 165, 166, 167, 168, 169, 170, 171, 172, 173, 174, 175, 176, 177, 178, 179, 180, 181, 182, 183, 184, 185, 186, 187, 188, 189, 190, 191, 192, 193, 194, 195, 196, 197, 198, 199, 200, 201, 202, 203, 204, 205, 206, 207, 208, 209, 210, 211, 212, 213, 214, 215, 216, 217, 218, 219, 220, 221, 222, 223, 224, 225, 226, 227, 228, 229, 230, 231, 232, 233, 234, 235, 236, 237],
      "AcquisitionTime": ["103250.125000", "103252.125000", "103254.125000", "103256.125000", "103258.125000", "103300.125000", "103302.125000", "103304.125000", "103306.125000", "103308.125000", "103310.125000", "103312.125000", "103314.125000", "103316.125000", "103318.125000", "103320.125000", "103322.125000", "103324.125000", "103326.125000", "103328.125000", "103330.125000", "103332.125000", "103334.125000", "103336.125000", "103338.125000", "103340.125000", "103342.125000", "103344.125000", "103346.125000", "103348.125000", "103350.125000", "103352.125000", "103354.125000", "103356.125000", "103358.125000", "103400.125000", "103402.125000", "103404.125000", "103406.125000", "103408.125000", "103410.125000", "103412.125000", "103414.125000", "103416.125000", "103418.125000", "103420.125000", "103422.125000", "103424.125000", "103426.125000", "103428.125000", "103430.125000", "103432.125000", "103434.125000", "103436.125000", "103438.125000", "103440.125000", "103442.125000", "103444.125000", "103446.125000", "103448.125000", "103450.125000", "103452.125000", "103454.125000", "103456.125000", "103458.125000", "103500.125000", "103502.125000", "103504.125000", "103506.125000", "103508.125000", "103510.125000", "103512.125000", "103514.125000", "103516.125000", "103518.125000", "103520.125000", "103522.125000", "103524.125000", "103526.125000", "103528.125000", "103530.125000", "103532.125000", "103534.125000", "103536.125000", "103538.125000", "103540.125000", "103542.125000", "103544.125000", "103546.125000", "103548.125000", "103550.125000", "103552.125000", "103554.125000", "103556.125000", "103558.125000", "103600.125000", "103602.125000", "103604.125000", "103606.125000", "103608.125000", "103610.125000", "103612.125000", "103614.125000", "103616.125000", "103618.125000", "103620.125000", "103622.125000", "103624.125000", "103626.125000", "103628.125000", "103630.125000", "103632.125000", "103634.125000", "103636.125000", "103638.125000", "103640.125000", "103642.125000", "103644.125000", "103646.125000", "103648.125000", "103650.125000", "103652.125000", "103654.125000", "103656.125000", "103658.125000", "103700.125000", "103702.125000", "103704.125000", "103706.125000", "103708.125000", "103710.125000", "103712.125000", "103714.125000", "103716.125000", "103718.125000", "103720.125000", "103722.125000", "103724.125000", "103726.125000", "103728.125000", "103730.125000", "103732.125000", "103734.125000", "103736.125000", "103738.125000", "103740.125000", "103742.125000", "103744.125000", "103746.125000", "103748.125000", "103750.125000", "103752.125000", "103754.125000", "103756.125000", "103758.125000", "103800.125000", "103802.125000", "103804.125000", "103806.125000", "103808.125000", "103810.125000", "103812.125000", "103814.125000", "103816.125000", "103818.125000", "103820.125000", "103822.125000", "103824.125000", "103826.125000", "103828.125000", "103830.125000", "103832.125000", "103834.125000", "103836.125000", "103838.125000", "103840.125000", "103842.125000", "103844.125000", "103846.125000", "103848.125000", "103850.125000", "103852.125000", "103854.125000", "103856.125000", "103858.125000", "103900.125000", "103902.125000", "103904.125000", "103906.125000", "103908.125000", "103910.125000", "103912.125000", "103914.125000", "103916.125000", "103918.125000", "103920.125000", "103922.125000", "103924.125000", "103926.125000", "103928.125000", "103930.125000", "103932.125000", "103934.125000", "103936.125000", "103938.125000", "103940.125000", "103942.125000", "103944.125000", "103946.125000", "103948.125000", "103950.125000", "103952.125000", "103954.125000", "103956.125000", "103958.125000", "104000.125000", "104002.125000", "104004.125000", "104006.125000", "104008.125000", "104010.125000", "104012.125000", "104014.125000", "104016.125000", "104018.125000", "104020.125000", "104022.125000", "104024.125000", "104026.125000", "104028.125000", "104030.125000", "104032.125000", "104034.125000", "104036.125000", "104038.125000", "104040.125000", "104042.125000"],
      "ContentTime": ["103348.570000", "103348.574000", "103348.578000", "103348.581000", "103348.584000", "103348.596000", "103348.599000", "103348.602000", "103348.605000", "103348.609000", "103348.612000", "103348.615000", "103348.619000", "103348.622000", "103348.626000", "103348.629000", "103348.632000", "103348.635000", "103348.638000", "103348.642000", "103348.645000", "103348.648000", "103348.652000", "103348.655000", "103348.658000", "103348.662000", "103348.665000", "103348.668000", "103348.671000", "103428.565000", "103428.568000", "103428.571000", "103428.574000", "103428.578000", "103428.581000", "103428.584000", "103428.587000", "103428.590000", "103428.593000", "103428.596000", "103428.600000", "103428.608000", "103428.612000", "103428.615000", "103428.618000", "103428.622000", "103428.625000", "103428.628000", "103428.631000", "103508.569000", "103508.572000", "103508.575000", "103508.579000", "103508.582000", "103508.585000", "103508.589000", "103508.594000", "103508.597000", "103508.607000", "103508.610000", "103508.617000", "103508.621000", "103508.624000", "103508.627000", "103508.631000", "103508.634000", "103508.637000", "103508.641000", "103508.644000", "103548.564000", "103548.567000", "103548.571000", "103548.574000", "103548.577000", "103548.580000", "103548.584000", "103548.588000", "103548.591000", "103548.594000", "103548.598000", "103548.601000", "103548.604000", "103548.608000", "103548.611000", "103548.614000", "103548.617000", "103548.621000", "103548.624000", "103548.627000", "103628.565000", "103628.568000", "103628.571000", "103628.582000", "103628.585000", "103628.589000", "103628.592000", "103628.595000", "103628.599000", "103628.602000", "103628.605000", "103628.609000", "103628.612000", "103628.615000", "103628.619000", "103628.622000", "103628.625000", "103628.628000", "103628.631000", "103628.635000", "103708.569000", "103708.572000", "103708.575000", "103708.579000", "103708.582000", "103708.585000", "103708.588000", "103708.592000", "103708.595000", "103708.598000", "103708.603000", "103708.607000", "103708.612000", "103708.615000", "103708.618000", "103708.622000", "103708.625000", "103708.628000", "103708.631000", "103708.636000", "103748.563000", "103748.567000", "103748.570000", "103748.574000", "103748.577000", "103748.580000", "103748.584000", "103748.587000", "103748.599000", "103748.602000", "103748.606000", "103748.609000", "103748.612000", "103748.615000", "103748.619000", "103748.622000", "103748.625000", "103748.628000", "103748.632000", "103748.635000", "103828.564000", "103828.569000", "103828.572000", "103828.576000", "103828.579000", "103828.582000", "103828.586000", "103828.589000", "103828.592000", "103828.596000", "103828.599000", "103828.602000", "103828.606000", "103828.609000", "103828.612000", "103828.615000", "103828.618000", "103828.622000", "103828.625000", "103828.628000", "103848.564000", "103848.569000", "103848.572000", "103848.576000", "103848.580000", "103848.584000", "103848.588000", "103848.592000", "103848.595000", "103848.599000", "103928.563000", "103928.567000", "103928.570000", "103928.573000", "103928.577000", "103928.580000", "103928.583000", "103928.586000", "103928.589000", "103928.593000", "103928.596000", "103928.599000", "103928.602000", "103928.605000", "103928.608000", "103928.612000", "103928.615000", "103928.618000", "103928.621000", "103928.624000", "104008.563000", "104008.572000", "104008.575000", "104008.579000", "104008.582000", "104008.590000", "104008.593000", "104008.597000", "104008.600000", "104008.604000", "104008.607000", "104008.610000", "104008.613000", "104008.617000", "104008.620000", "104008.623000", "104008.626000", "104008.630000", "104008.633000", "104008.636000", "104043.830000", "104043.833000", "104043.835000", "104043.838000", "104043.841000", "104043.843000", "104043.846000", "104043.848000", "104043.850000", "104043.853000", "104043.855000", "104043.865000", "104043.868000", "104043.872000", "104043.877000", "104043.881000", "104043.895000", "104043.902000"],
      "InstanceCreationTime": ["103348.570000", "103348.574000", "103348.578000", "103348.581000", "103348.584000", "103348.596000", "103348.599000", "103348.602000", "103348.605000", "103348.609000", "103348.612000", "103348.615000", "103348.619000", "103348.622000", "103348.626000", "103348.629000", "103348.632000", "103348.635000", "103348.638000", "103348.642000", "103348.645000", "103348.648000", "103348.652000", "103348.655000", "103348.658000", "103348.662000", "103348.665000", "103348.668000", "103348.671000", "103428.565000", "103428.568000", "103428.571000", "103428.574000", "103428.578000", "103428.581000", "103428.584000", "103428.587000", "103428.590000", "103428.593000", "103428.596000", "103428.600000", "103428.608000", "103428.612000", "103428.615000", "103428.618000", "103428.622000", "103428.625000", "103428.628000", "103428.631000", "103508.569000", "103508.572000", "103508.575000", "103508.579000", "103508.582000", "103508.585000", "103508.589000", "103508.594000", "103508.597000", "103508.607000", "103508.610000", "103508.617000", "103508.621000", "103508.624000", "103508.627000", "103508.631000", "103508.634000", "103508.637000", "103508.641000", "103508.644000", "103548.564000", "103548.567000", "103548.571000", "103548.574000", "103548.577000", "103548.580000", "103548.584000", "103548.588000", "103548.591000", "103548.594000", "103548.598000", "103548.601000", "103548.604000", "103548.608000", "103548.611000", "103548.614000", "103548.617000", "103548.621000", "103548.624000", "103548.627000", "103628.565000", "103628.568000", "103628.571000", "103628.582000", "103628.585000", "103628.589000", "103628.592000", "103628.595000", "103628.599000", "103628.602000", "103628.605000", "103628.609000", "103628.612000", "103628.615000", "103628.619000", "103628.622000", "103628.625000", "103628.628000", "103628.631000", "103628.635000", "103708.569000", "103708.572000", "103708.575000", "103708.579000", "103708.582000", "103708.585000", "103708.588000", "103708.592000", "103708.595000", "103708.598000", "103708.603000", "103708.607000", "103708.612000", "103708.615000", "103708.618000", "103708.622000", "103708.625000", "103708.628000", "103708.631000", "103708.636000", "103748.563000", "103748.567000", "103748.570000", "103748.574000", "103748.577000", "103748.580000", "103748.584000", "103748.587000", "103748.599000", "103748.602000", "103748.606000", "103748.609000", "103748.612000", "103748.615000", "103748.619000", "103748.622000", "103748.625000", "103748.628000", "103748.632000", "103748.635000", "103828.564000", "103828.569000", "103828.572000", "103828.576000", "103828.579000", "103828.582000", "103828.586000", "103828.589000", "103828.592000", "103828.596000", "103828.599000", "103828.602000", "103828.606000", "103828.609000", "103828.612000", "103828.615000", "103828.618000", "103828.622000", "103828.625000", "103828.628000", "103848.564000", "103848.569000", "103848.572000", "103848.576000", "103848.580000", "103848.584000", "103848.588000", "103848.592000", "103848.595000", "103848.599000", "103928.563000", "103928.567000", "103928.570000", "103928.573000", "103928.577000", "103928.580000", "103928.583000", "103928.586000", "103928.589000", "103928.593000", "103928.596000", "103928.599000", "103928.602000", "103928.605000", "103928.608000", "103928.612000", "103928.615000", "103928.618000", "103928.621000", "103928.624000", "104008.563000", "104008.572000", "104008.575000", "104008.579000", "104008.582000", "104008.590000", "104008.593000", "104008.597000", "104008.600000", "104008.604000", "104008.607000", "104008.610000", "104008.613000", "104008.617000", "104008.620000", "104008.623000", "104008.626000", "104008.630000", "104008.633000", "104008.636000", "104043.830000", "104043.833000", "104043.835000", "104043.838000", "104043.841000", "104043.843000", "104043.846000", "104043.848000", "104043.850000", "104043.853000", "104043.855000", "104043.865000", "104043.868000", "104043.872000", "104043.877000", "104043.881000", "104043.895000", "104043.902000"],
      "InstanceNumber": [1, 2, 3, 4, 5, 6, 7, 8, 9, 10, 11, 12, 13, 14, 15, 16, 17, 18, 19, 20, 21, 22, 23, 24, 25, 26, 27, 28, 29, 30, 31, 32, 33, 34, 35, 36, 37, 38, 39, 40, 41, 42, 43, 44, 45, 46, 47, 48, 49, 50, 51, 52, 53, 54, 55, 56, 57, 58, 59, 60, 61, 62, 63, 64, 65, 66, 67, 68, 69, 70, 71, 72, 73, 74, 75, 76, 77, 78, 79, 80, 81, 82, 83, 84, 85, 86, 87, 88, 89, 90, 91, 92, 93, 94, 95, 96, 97, 98, 99, 100, 101, 102, 103, 104, 105, 106, 107, 108, 109, 110, 111, 112, 113, 114, 115, 116, 117, 118, 119, 120, 121, 122, 123, 124, 125, 126, 127, 128, 129, 130, 131, 132, 133, 134, 135, 136, 137, 138, 139, 140, 141, 142, 143, 144, 145, 146, 147, 148, 149, 150, 151, 152, 153, 154, 155, 156, 157, 158, 159, 160, 161, 162, 163, 164, 165, 166, 167, 168, 169, 170, 171, 172, 173, 174, 175, 176, 177, 178, 179, 180, 181, 182, 183, 184, 185, 186, 187, 188, 189, 190, 191, 192, 193, 194, 195, 196, 197, 198, 199, 200, 201, 202, 203, 204, 205, 206, 207, 208, 209, 210, 211, 212, 213, 214, 215, 216, 217, 218, 219, 220, 221, 222, 223, 224, 225, 226, 227, 228, 229, 230, 231, 232, 233, 234, 235, 236, 237],
      "LargestImagePixelValue": [2043, 2176, 2063, 2182, 1945, 1949, 2153, 1946, 2557, 2477, 2794, 2298, 1950, 2047, 2260, 2316, 2376, 2118, 2127, 2017, 2180, 2275, 1975, 2172, 2174, 2088, 2877, 2990, 1991, 2260, 2165, 2057, 1985, 2002, 2041, 2022, 2029, 2471, 2040, 2081, 2221, 1985, 2005, 1994, 1998, 1991, 2043, 2061, 2106, 2109, 2623, 2263, 2226, 2191, 2178, 2053, 2161, 2162, 2274, 2245, 2178, 2115, 2178, 2012, 2012, 2018, 2010, 2435, 2229, 1973, 2059, 2140, 2291, 2250, 2377, 2290, 2191, 2141, 2108, 2167, 2114, 2133, 1977, 2005, 1999, 2573, 2380, 2357, 2307, 2565, 2676, 1991, 1988, 1979, 2106, 2195, 2094, 2007, 2254, 2177, 1981, 2478, 2197, 2091, 1982, 2095, 2552, 2184, 2333, 2096, 2416, 2144, 2179, 2048, 2132, 2292, 2214, 2202, 2107, 2150, 1998, 2076, 2173, 2171, 2257, 2115, 2171, 2240, 2166, 2276, 2197, 2366, 2206, 2204, 2025, 1981, 1975, 2951, 2081, 3310, 2275, 2077, 2054, 2439, 2232, 2027, 2266, 2275, 2005, 2540, 2322, 1995, 2053, 2498, 2204, 2386, 2180, 2061, 2338, 2114, 2031, 2206, 2002, 2034, 2085, 2069, 2053, 2011, 2018, 2000, 2003, 2069, 2138, 2078, 2013, 2041, 2013, 2032, 2044, 2169, 2067, 2226, 2257, 2117, 2385, 2157, 2567, 2321, 2136, 2246, 2280, 2280, 2045, 2036, 2059, 2036, 2360, 2119, 2247, 2111, 2144, 2061, 2136, 2200, 2059, 2029, 2029, 2278, 2791, 2236, 2137, 2044, 2091, 2686, 2144, 2264, 2194, 2032, 2491, 2114, 2125, 2137, 2579, 2308, 1980, 2119, 2486, 2348, 2874, 2247, 2166, 1995, 2046, 2323, 2290, 2639, 2178],
      "WindowCenter": [767.0, 766.0, 766.0, 766.0, 766.0, 769.0, 770.0, 769.0, 764.0, 767.0, 768.0, 767.0, 767.0, 767.0, 767.0, 768.0, 767.0, 767.0, 766.0, 766.0, 766.0, 767.0, 767.0, 767.0, 767.0, 766.0, 759.0, 763.0, 762.0, 763.0, 764.0, 764.0, 765.0, 766.0, 765.0, 765.0, 766.0, 762.0, 768.0, 766.0, 767.0, 767.0, 766.0, 767.0, 766.0, 766.0, 766.0, 766.0, 766.0, 767.0, 768.0, 767.0, 767.0, 767.0, 767.0, 768.0, 768.0, 767.0, 768.0, 768.0, 768.0, 768.0, 768.0, 768.0, 767.0, 767.0, 766.0, 760.0, 771.0, 767.0, 766.0, 767.0, 767.0, 768.0, 768.0, 767.0, 767.0, 767.0, 767.0, 767.0, 767.0, 767.0, 766.0, 767.0, 767.0, 768.0, 767.0, 765.0, 766.0, 767.0, 764.0, 762.0, 763.0, 764.0, 765.0, 767.0, 766.0, 766.0, 767.0, 766.0, 766.0, 767.0, 767.0, 767.0, 766.0, 767.0, 768.0, 767.0, 767.0, 769.0, 768.0, 767.0, 767.0, 767.0, 767.0, 768.0, 767.0, 767.0, 767.0, 767.0, 766.0, 767.0, 767.0, 767.0, 767.0, 767.0, 767.0, 767.0, 767.0, 767.0, 766.0, 762.0, 769.0, 767.0, 767.0, 766.0, 766.0, 767.0, 763.0, 766.0, 763.0, 763.0, 764.0, 766.0, 766.0, 766.0, 766.0, 766.0, 766.0, 767.0, 767.0, 766.0, 768.0, 769.0, 768.0, 768.0, 767.0, 767.0, 768.0, 767.0, 767.0, 769.0, 767.0, 767.0, 767.0, 767.0, 768.0, 768.0, 767.0, 767.0, 767.0, 767.0, 767.0, 766.0, 766.0, 767.0, 766.0, 767.0, 767.0, 768.0, 767.0, 768.0, 768.0, 767.0, 765.0, 769.0, 767.0, 766.0, 766.0, 767.0, 768.0, 768.0, 767.0, 767.0, 767.0, 767.0, 767.0, 767.0, 767.0, 769.0, 768.0, 767.0, 767.0, 767.0, 767.0, 767.0, 766.0, 768.0, 769.0, 767.0, 767.0, 767.0, 768.0, 768.0, 767.0, 766.0, 766.0, 768.0, 768.0, 767.0, 766.0, 767.0, 768.0, 767.0, 766.0, 767.0, 768.0, 767.0, 766.0, 764.0, 763.0, 764.0, 766.0, 768.0, 767.0, 767.0, 766.0],
      "WindowWidth": [1729.0, 1726.0, 1725.0, 1727.0, 1726.0, 1736.0, 1741.0, 1735.0, 1725.0, 1734.0, 1736.0, 1732.0, 1730.0, 1731.0, 1732.0, 1734.0, 1733.0, 1729.0, 1727.0, 1725.0, 1727.0, 1730.0, 1729.0, 1731.0, 1731.0, 1727.0, 1707.0, 1722.0, 1714.0, 1718.0, 1720.0, 1721.0, 1724.0, 1725.0, 1724.0, 1724.0, 1726.0, 1714.0, 1733.0, 1727.0, 1729.0, 1728.0, 1727.0, 1728.0, 1726.0, 1724.0, 1726.0, 1725.0, 1727.0, 1730.0, 1734.0, 1731.0, 1731.0, 1730.0, 1729.0, 1731.0, 1732.0, 1730.0, 1732.0, 1734.0, 1733.0, 1732.0, 1733.0, 1732.0, 1731.0, 1729.0, 1727.0, 1708.0, 1743.0, 1729.0, 1727.0, 1729.0, 1732.0, 1734.0, 1734.0, 1731.0, 1730.0, 1731.0, 1730.0, 1729.0, 1729.0, 1729.0, 1727.0, 1729.0, 1727.0, 1734.0, 1731.0, 1722.0, 1726.0, 1732.0, 1719.0, 1710.0, 1716.0, 1718.0, 1724.0, 1728.0, 1727.0, 1725.0, 1730.0, 1728.0, 1726.0, 1731.0, 1728.0, 1728.0, 1726.0, 1730.0, 1735.0, 1730.0, 1732.0, 1736.0, 1733.0, 1731.0, 1731.0, 1727.0, 1729.0, 1732.0, 1730.0, 1730.0, 1728.0, 1728.0, 1726.0, 1729.0, 1730.0, 1730.0, 1730.0, 1728.0, 1729.0, 1730.0, 1730.0, 1730.0, 1727.0, 1714.0, 1736.0, 1727.0, 1728.0, 1724.0, 1726.0, 1730.0, 1718.0, 1730.0, 1714.0, 1715.0, 1717.0, 1726.0, 1724.0, 1724.0, 1727.0, 1726.0, 1724.0, 1731.0, 1727.0, 1723.0, 1733.0, 1739.0, 1732.0, 1732.0, 1730.0, 1728.0, 1732.0, 1730.0, 1729.0, 1737.0, 1729.0, 1727.0, 1728.0, 1730.0, 1731.0, 1730.0, 1728.0, 1729.0, 1729.0, 1729.0, 1730.0, 1726.0, 1726.0, 1726.0, 1726.0, 1727.0, 1729.0, 1731.0, 1729.0, 1732.0, 1731.0, 1730.0, 1724.0, 1735.0, 1731.0, 1727.0, 1726.0, 1729.0, 1732.0, 1731.0, 1727.0, 1728.0, 1729.0, 1729.0, 1731.0, 1729.0, 1731.0, 1734.0, 1732.0, 1728.0, 1727.0, 1729.0, 1728.0, 1727.0, 1726.0, 1733.0, 1737.0, 1730.0, 1727.0, 1726.0, 1730.0, 1735.0, 1727.0, 1726.0, 1726.0, 1730.0, 1734.0, 1728.0, 1726.0, 1730.0, 1735.0, 1730.0, 1725.0, 1729.0, 1733.0, 1729.0, 1727.0, 1717.0, 1716.0, 1718.0, 1725.0, 1731.0, 1731.0, 1732.0, 1725.0]
    },
    "slices": {}
  }
}