{
  "AcquisitionMatrixPE": 70,
  "AcquisitionNumber": 1,
  "AcquisitionTime": "11:15:48.625000",
  "BandwidthPerPixelPhaseEncode": 38.873,
  "BaseResolution": 70,
  "BodyPartExamined": "HEAD",
  "ConsistencyInfo": "N4_VE11B_LATEST_20150530",
  "ConversionSoftware": "dcm2niix",
  "ConversionSoftwareVersion": "v1.0.20190410  GCC6.3.0",
  "DerivedVendorReportedEchoSpacing": 0.000489996,
  "DeviceSerialNumber": "66088",
  "DwellTime": 2.9e-06,
  "EchoTime": 0.03,
  "EchoTrainLength": 53,
  "EffectiveEchoSpacing": 0.000367497,
  "FlipAngle": 90,
  "ImageOrientationPatientDICOM": [0.999962, -0.00857431, 0.00169351, 0.00872647, 0.990255, -0.138994],
  "ImageType": [
    "ORIGINAL",
    "PRIMARY",
    "M",
    "ND",
    "NORM",
    "MOSAIC"
],
  "ImagingFrequency": 123.191,
  "InPlanePhaseEncodingDirectionDICOM": "COL",
  "InstitutionAddress": "Street_StreetNo_City_District_IR_ZIP",
  "InstitutionName": "NBML",
  "InstitutionalDepartmentName": "Department",
  "MRAcquisitionType": "2D",
  "MagneticFieldStrength": 3,
  "Manufacturer": "Siemens",
  "ManufacturersModelName": "Prisma",
  "Modality": "MR",
  "ParallelReductionFactorInPlane": 2,
  "PartialFourier": 1,
  "PatientPosition": "HFS",
  "PercentPhaseFOV": 100,
  "PhaseEncodingDirection": "j-",
  "PhaseEncodingSteps": 105,
  "PhaseOversampling": 0.5,
  "PhaseResolution": 1,
  "PixelBandwidth": 2465,
  "ProcedureStepDescription": "Sh-Ka_P-96073-Dr_Khaligh",
  "ProtocolName": "ep2d_p2_Task_3.5_measurment:237",
  "PulseSequenceDetails": "%SiemensSeq%_ep2d_pace",
  "ReceiveCoilActiveElements": "HC1-7",
  "ReceiveCoilName": "HeadNeck_64",
  "ReconMatrixPE": 70,
  "RefLinesPE": 24,
  "RepetitionTime": 2,
  "SAR": 0.0896791,
  "ScanOptions": "FS",
  "ScanningSequence": "EP",
  "SequenceName": "_epfid2d1_70",
  "SequenceVariant": "SK_OSP",
  "SeriesDescription": "ep2d_p2_Task_3.5_measurment:237",
  "SeriesNumber": 9,
  "ShimSetting": [2614, -4457, -3288, 255, 41, 40, 13, -47],
  "SliceThickness": 3.5,
  "SliceTiming": [0.9875, 0, 1.0475, 0.0575, 1.105, 0.115, 1.1625, 0.1725, 1.2225, 0.2325, 1.28, 0.29, 1.3375, 0.3475, 1.3975, 0.4075, 1.455, 0.465, 1.5125, 0.5225, 1.57, 0.58, 1.63, 0.64, 1.6875, 0.6975, 1.745, 0.755, 1.805, 0.815, 1.8625, 0.8725, 1.92, 0.93],
  "SoftwareVersions": "syngo_MR_E11",
  "SpacingBetweenSlices": 3.85,
  "StationName": "AWP66088",
  "TaskName": "categorySelectivity",
  "TotalReadoutTime": 0.0253573,
  "TxRefAmp": 250.495,
  "dcmmeta_affine": [
    [-3.542721748352051, 0.030916646122932434, 0.0018681171350181103, 123.93219757080078],
    [0.03037755936384201, 3.508331298828125, -0.5351635813713074, -117.07767486572266],
    [0.0059998538345098495, 0.49243608117103577, 3.8126232624053955, -61.845829010009766],
    [0.0, 0.0, 0.0, 1.0]
],
  "dcmmeta_reorient_transform": [
    [0.0, -1.0, 0.0, 69.0],
    [1.0, 0.0, 0.0, 0.0],
    [0.0, 0.0, 1.0, 0.0],
    [0.0, 0.0, 0.0, 1.0]
],
  "dcmmeta_shape": [70, 70, 34, 237],
  "dcmmeta_slice_dim": 2,
  "dcmmeta_version": 0.6,
  "global": {
    "const": {
      "AccessionNumber": "MB",
      "AcquisitionMatrix": [70, 0, 0, 70],
      "AngioFlag": "N",
      "BitsAllocated": 16,
      "BitsStored": 12,
      "BodyPartExamined": "HEAD",
      "Columns": 420,
      "EchoNumbers": 1,
      "EchoTime": 30.0,
      "EchoTrainLength": 53,
      "FlipAngle": 90.0,
      "HighBit": 11,
      "ImageOrientationPatient": [0.99996180588438, -0.0085743108247, 0.00169350711248, 0.00872647287947, 0.99025476571649, -0.1389940561566],
      "ImagePositionPatient": [-751.4521859392, -733.63906526905, 57.258603903369],
      "ImageType": [
        "ORIGINAL",
        "PRIMARY",
        "M",
        "ND",
        "NORM",
        "MOSAIC"
],
      "ImagedNucleus": "1H",
      "ImagingFrequency": 123.191156,
      "InPlanePhaseEncodingDirection": "COL",
      "MRAcquisitionType": "2D",
      "MagneticFieldStrength": 3.0,
      "Manufacturer": "SIEMENS",
      "ManufacturerModelName": "Prisma",
      "Modality": "MR",
      "NumberOfAverages": 1.0,
      "NumberOfPhaseEncodingSteps": 105,
      "PercentPhaseFieldOfView": 100.0,
      "PercentSampling": 100.0,
      "PerformedProcedureStepStartTime": "100008.950000",
      "PhotometricInterpretation": "MONOCHROME2",
      "PixelBandwidth": 2465.0,
      "PixelRepresentation": 0,
      "PixelSpacing": [3.542857170105, 3.542857170105],
      "ProtocolName": "ep2d_p2_Task_3.5_measurment:237",
      "RepetitionTime": 2000.0,
      "Rows": 420,
      "SAR": 0.08967913076176,
      "SamplesPerPixel": 1,
      "ScanOptions": "FS",
      "ScanningSequence": "EP",
      "SequenceName": "*epfid2d1_70",
      "SequenceVariant": [
        "SK",
        "OSP"
],
      "SeriesDescription": "ep2d_p2_Task_3.5_measurment:237",
      "SeriesNumber": 9,
      "SeriesTime": "111644.420000",
      "SliceLocation": -44.911069070486,
      "SliceThickness": 3.5,
      "SmallestImagePixelValue": 0,
      "SoftwareVersions": "syngo MR E11",
      "SpacingBetweenSlices": 3.8499999231658,
      "SpecificCharacterSet": "ISO_IR 100",
      "StudyID": "1",
      "StudyTime": "100008.883000",
      "TransmitCoilName": "Body",
      "VariableFlipAngleFlag": "N",
      "WindowCenterWidthExplanation": "Algo1",
      "dBdt": 0.0},
    "slices": {}
  },
  "time": {
    "samples": {
      "AcquisitionNumber": [1, 2, 3, 4, 5, 6, 7, 8, 9, 10, 11, 12, 13, 14, 15, 16, 17, 18, 19, 20, 21, 22, 23, 24, 25, 26, 27, 28, 29, 30, 31, 32, 33, 34, 35, 36, 37, 38, 39, 40, 41, 42, 43, 44, 45, 46, 47, 48, 49, 50, 51, 52, 53, 54, 55, 56, 57, 58, 59, 60, 61, 62, 63, 64, 65, 66, 67, 68, 69, 70, 71, 72, 73, 74, 75, 76, 77, 78, 79, 80, 81, 82, 83, 84, 85, 86, 87, 88, 89, 90, 91, 92, 93, 94, 95, 96, 97, 98, 99, 100, 101, 102, 103, 104, 105, 106, 107, 108, 109, 110, 111, 112, 113, 114, 115, 116, 117, 118, 119, 120, 121, 122, 123, 124, 125, 126, 127, 128, 129, 130, 131, 132, 133, 134, 135, 136, 137, 138, 139, 140, 141, 142, 143, 144, 145, 146, 147, 148, 149, 150, 151, 152, 153, 154, 155, 156, 157, 158, 159, 160, 161, 162, 163, 164, 165, 166, 167, 168, 169, 170, 171, 172, 173, 174, 175, 176, 177, 178, 179, 180, 181, 182, 183, 184, 185, 186, 187, 188, 189, 190, 191, 192, 193, 194, 195, 196, 197, 198, 199, 200, 201, 202, 203, 204, 205, 206, 207, 208, 209, 210, 211, 212, 213, 214, 215, 216, 217, 218, 219, 220, 221, 222, 223, 224, 225, 226, 227, 228, 229, 230, 231, 232, 233, 234, 235, 236, 237],
      "AcquisitionTime": ["111548.625000", "111550.625000", "111552.625000", "111554.625000", "111556.625000", "111558.625000", "111600.625000", "111602.625000", "111604.625000", "111606.625000", "111608.625000", "111610.625000", "111612.625000", "111614.625000", "111616.625000", "111618.625000", "111620.625000", "111622.625000", "111624.625000", "111626.625000", "111628.625000", "111630.625000", "111632.625000", "111634.625000", "111636.625000", "111638.625000", "111640.625000", "111642.625000", "111644.625000", "111646.625000", "111648.625000", "111650.625000", "111652.625000", "111654.625000", "111656.625000", "111658.625000", "111700.625000", "111702.625000", "111704.625000", "111706.625000", "111708.625000", "111710.625000", "111712.625000", "111714.625000", "111716.625000", "111718.625000", "111720.625000", "111722.625000", "111724.625000", "111726.625000", "111728.625000", "111730.625000", "111732.625000", "111734.625000", "111736.625000", "111738.625000", "111740.625000", "111742.625000", "111744.625000", "111746.625000", "111748.625000", "111750.625000", "111752.625000", "111754.625000", "111756.625000", "111758.625000", "111800.625000", "111802.625000", "111804.625000", "111806.625000", "111808.625000", "111810.625000", "111812.625000", "111814.625000", "111816.625000", "111818.625000", "111820.625000", "111822.625000", "111824.625000", "111826.625000", "111828.625000", "111830.625000", "111832.625000", "111834.625000", "111836.625000", "111838.625000", "111840.625000", "111842.625000", "111844.625000", "111846.625000", "111848.625000", "111850.625000", "111852.625000", "111854.625000", "111856.625000", "111858.625000", "111900.625000", "111902.625000", "111904.625000", "111906.625000", "111908.625000", "111910.625000", "111912.625000", "111914.625000", "111916.625000", "111918.625000", "111920.625000", "111922.625000", "111924.625000", "111926.625000", "111928.625000", "111930.625000", "111932.625000", "111934.625000", "111936.625000", "111938.625000", "111940.625000", "111942.625000", "111944.625000", "111946.625000", "111948.625000", "111950.625000", "111952.625000", "111954.625000", "111956.625000", "111958.625000", "112000.625000", "112002.625000", "112004.625000", "112006.625000", "112008.625000", "112010.625000", "112012.625000", "112014.625000", "112016.625000", "112018.625000", "112020.625000", "112022.625000", "112024.625000", "112026.625000", "112028.625000", "112030.625000", "112032.625000", "112034.625000", "112036.625000", "112038.625000", "112040.625000", "112042.625000", "112044.625000", "112046.625000", "112048.625000", "112050.625000", "112052.625000", "112054.625000", "112056.625000", "112058.625000", "112100.625000", "112102.625000", "112104.625000", "112106.625000", "112108.625000", "112110.625000", "112112.625000", "112114.625000", "112116.625000", "112118.625000", "112120.625000", "112122.625000", "112124.625000", "112126.625000", "112128.625000", "112130.625000", "112132.625000", "112134.625000", "112136.625000", "112138.625000", "112140.625000", "112142.625000", "112144.625000", "112146.625000", "112148.625000", "112150.625000", "112152.625000", "112154.625000", "112156.625000", "112158.625000", "112200.625000", "112202.625000", "112204.625000", "112206.625000", "112208.625000", "112210.625000", "112212.625000", "112214.625000", "112216.625000", "112218.625000", "112220.625000", "112222.625000", "112224.625000", "112226.625000", "112228.625000", "112230.625000", "112232.625000", "112234.625000", "112236.625000", "112238.625000", "112240.625000", "112242.625000", "112244.625000", "112246.625000", "112248.625000", "112250.625000", "112252.625000", "112254.625000", "112256.625000", "112258.625000", "112300.625000", "112302.625000", "112304.625000", "112306.625000", "112308.625000", "112310.625000", "112312.625000", "112314.625000", "112316.625000", "112318.625000", "112320.625000", "112322.625000", "112324.625000", "112326.625000", "112328.625000", "112330.625000", "112332.625000", "112334.625000", "112336.625000", "112338.625000", "112340.625000"],
      "ContentTime": ["111644.424000", "111644.428000", "111644.431000", "111644.434000", "111644.437000", "111644.441000", "111644.444000", "111644.447000", "111644.450000", "111644.453000", "111644.457000", "111644.460000", "111644.463000", "111644.474000", "111644.477000", "111644.480000", "111644.483000", "111644.487000", "111644.491000", "111644.495000", "111644.498000", "111644.501000", "111644.505000", "111644.508000", "111644.511000", "111644.521000", "111644.524000", "111644.528000", "111724.417000", "111724.420000", "111724.423000", "111724.426000", "111724.430000", "111724.433000", "111724.436000", "111724.450000", "111724.453000", "111724.456000", "111724.459000", "111724.463000", "111724.466000", "111724.469000", "111724.472000", "111724.475000", "111724.478000", "111724.481000", "111724.484000", "111724.488000", "111804.416000", "111804.419000", "111804.421000", "111804.424000", "111804.426000", "111804.429000", "111804.431000", "111804.433000", "111804.436000", "111804.438000", "111804.441000", "111804.443000", "111804.446000", "111804.448000", "111804.450000", "111804.453000", "111804.455000", "111804.458000", "111804.460000", "111804.462000", "111844.417000", "111844.420000", "111844.423000", "111844.427000", "111844.430000", "111844.433000", "111844.436000", "111844.439000", "111844.443000", "111844.446000", "111844.449000", "111844.452000", "111844.456000", "111844.459000", "111844.462000", "111844.465000", "111844.468000", "111844.471000", "111844.474000", "111844.478000", "111924.417000", "111924.420000", "111924.423000", "111924.426000", "111924.430000", "111924.433000", "111924.436000", "111924.439000", "111924.442000", "111924.445000", "111924.449000", "111924.452000", "111924.455000", "111924.458000", "111924.461000", "111924.465000", "111924.468000", "111924.471000", "111924.474000", "111924.477000", "112004.415000", "112004.418000", "112004.420000", "112004.423000", "112004.425000", "112004.428000", "112004.430000", "112004.433000", "112004.435000", "112004.437000", "112004.440000", "112004.442000", "112004.445000", "112004.447000", "112004.449000", "112004.452000", "112004.454000", "112004.457000", "112004.459000", "112004.462000", "112044.418000", "112044.421000", "112044.424000", "112044.427000", "112044.431000", "112044.434000", "112044.437000", "112044.440000", "112044.443000", "112044.446000", "112044.455000", "112044.459000", "112044.463000", "112044.466000", "112044.468000", "112044.472000", "112044.475000", "112044.478000", "112044.481000", "112044.484000", "112124.417000", "112124.420000", "112124.423000", "112124.427000", "112124.430000", "112124.433000", "112124.436000", "112124.439000", "112124.442000", "112124.446000", "112124.449000", "112124.452000", "112124.455000", "112124.458000", "112124.461000", "112124.464000", "112124.467000", "112124.470000", "112124.474000", "112124.477000", "112204.415000", "112204.418000", "112204.420000", "112204.423000", "112204.425000", "112204.428000", "112204.430000", "112204.433000", "112204.447000", "112204.450000", "112204.452000", "112204.455000", "112204.457000", "112204.459000", "112204.462000", "112204.464000", "112204.467000", "112204.469000", "112204.471000", "112204.474000", "112244.417000", "112244.420000", "112244.423000", "112244.426000", "112244.430000", "112244.433000", "112244.436000", "112244.439000", "112244.442000", "112244.445000", "112244.449000", "112244.452000", "112244.456000", "112244.459000", "112244.462000", "112244.465000", "112244.468000", "112244.471000", "112244.474000", "112244.478000", "112324.417000", "112324.420000", "112324.423000", "112324.427000", "112324.430000", "112324.433000", "112324.436000", "112324.439000", "112324.442000", "112324.445000", "112324.449000", "112324.452000", "112324.455000", "112324.458000", "112324.461000", "112324.465000", "112324.468000", "112324.471000", "112324.475000", "112324.478000", "112341.923000", "112341.926000", "112341.930000", "112341.933000", "112341.936000", "112341.940000", "112341.943000", "112341.946000", "112341.949000"],
      "InstanceCreationTime": ["111644.424000", "111644.428000", "111644.431000", "111644.434000", "111644.437000", "111644.441000", "111644.444000", "111644.447000", "111644.450000", "111644.453000", "111644.457000", "111644.460000", "111644.463000", "111644.474000", "111644.477000", "111644.480000", "111644.483000", "111644.487000", "111644.491000", "111644.495000", "111644.498000", "111644.501000", "111644.505000", "111644.508000", "111644.511000", "111644.521000", "111644.524000", "111644.528000", "111724.417000", "111724.420000", "111724.423000", "111724.426000", "111724.430000", "111724.433000", "111724.436000", "111724.450000", "111724.453000", "111724.456000", "111724.459000", "111724.463000", "111724.466000", "111724.469000", "111724.472000", "111724.475000", "111724.478000", "111724.481000", "111724.484000", "111724.488000", "111804.416000", "111804.419000", "111804.421000", "111804.424000", "111804.426000", "111804.429000", "111804.431000", "111804.433000", "111804.436000", "111804.438000", "111804.441000", "111804.443000", "111804.446000", "111804.448000", "111804.450000", "111804.453000", "111804.455000", "111804.458000", "111804.460000", "111804.462000", "111844.417000", "111844.420000", "111844.423000", "111844.427000", "111844.430000", "111844.433000", "111844.436000", "111844.439000", "111844.443000", "111844.446000", "111844.449000", "111844.452000", "111844.456000", "111844.459000", "111844.462000", "111844.465000", "111844.468000", "111844.471000", "111844.474000", "111844.478000", "111924.417000", "111924.420000", "111924.423000", "111924.426000", "111924.430000", "111924.433000", "111924.436000", "111924.439000", "111924.442000", "111924.445000", "111924.449000", "111924.452000", "111924.455000", "111924.458000", "111924.461000", "111924.465000", "111924.468000", "111924.471000", "111924.474000", "111924.477000", "112004.415000", "112004.418000", "112004.420000", "112004.423000", "112004.425000", "112004.428000", "112004.430000", "112004.433000", "112004.435000", "112004.437000", "112004.440000", "112004.442000", "112004.445000", "112004.447000", "112004.449000", "112004.452000", "112004.454000", "112004.457000", "112004.459000", "112004.462000", "112044.418000", "112044.421000", "112044.424000", "112044.427000", "112044.431000", "112044.434000", "112044.437000", "112044.440000", "112044.443000", "112044.446000", "112044.455000", "112044.459000", "112044.463000", "112044.466000", "112044.468000", "112044.472000", "112044.475000", "112044.478000", "112044.481000", "112044.484000", "112124.417000", "112124.420000", "112124.423000", "112124.427000", "112124.430000", "112124.433000", "112124.436000", "112124.439000", "112124.442000", "112124.446000", "112124.449000", "112124.452000", "112124.455000", "112124.458000", "112124.461000", "112124.464000", "112124.467000", "112124.470000", "112124.474000", "112124.477000", "112204.415000", "112204.418000", "112204.420000", "112204.423000", "112204.425000", "112204.428000", "112204.430000", "112204.433000", "112204.447000", "112204.450000", "112204.452000", "112204.455000", "112204.457000", "112204.459000", "112204.462000", "112204.464000", "112204.467000", "112204.469000", "112204.471000", "112204.474000", "112244.417000", "112244.420000", "112244.423000", "112244.426000", "112244.430000", "112244.433000", "112244.436000", "112244.439000", "112244.442000", "112244.445000", "112244.449000", "112244.452000", "112244.456000", "112244.459000", "112244.462000", "112244.465000", "112244.468000", "112244.471000", "112244.474000", "112244.478000", "112324.417000", "112324.420000", "112324.423000", "112324.427000", "112324.430000", "112324.433000", "112324.436000", "112324.439000", "112324.442000", "112324.445000", "112324.449000", "112324.452000", "112324.455000", "112324.458000", "112324.461000", "112324.465000", "112324.468000", "112324.471000", "112324.475000", "112324.478000", "112341.923000", "112341.926000", "112341.930000", "112341.933000", "112341.936000", "112341.940000", "112341.943000", "112341.946000", "112341.949000"],
      "InstanceNumber": [1, 2, 3, 4, 5, 6, 7, 8, 9, 10, 11, 12, 13, 14, 15, 16, 17, 18, 19, 20, 21, 22, 23, 24, 25, 26, 27, 28, 29, 30, 31, 32, 33, 34, 35, 36, 37, 38, 39, 40, 41, 42, 43, 44, 45, 46, 47, 48, 49, 50, 51, 52, 53, 54, 55, 56, 57, 58, 59, 60, 61, 62, 63, 64, 65, 66, 67, 68, 69, 70, 71, 72, 73, 74, 75, 76, 77, 78, 79, 80, 81, 82, 83, 84, 85, 86, 87, 88, 89, 90, 91, 92, 93, 94, 95, 96, 97, 98, 99, 100, 101, 102, 103, 104, 105, 106, 107, 108, 109, 110, 111, 112, 113, 114, 115, 116, 117, 118, 119, 120, 121, 122, 123, 124, 125, 126, 127, 128, 129, 130, 131, 132, 133, 134, 135, 136, 137, 138, 139, 140, 141, 142, 143, 144, 145, 146, 147, 148, 149, 150, 151, 152, 153, 154, 155, 156, 157, 158, 159, 160, 161, 162, 163, 164, 165, 166, 167, 168, 169, 170, 171, 172, 173, 174, 175, 176, 177, 178, 179, 180, 181, 182, 183, 184, 185, 186, 187, 188, 189, 190, 191, 192, 193, 194, 195, 196, 197, 198, 199, 200, 201, 202, 203, 204, 205, 206, 207, 208, 209, 210, 211, 212, 213, 214, 215, 216, 217, 218, 219, 220, 221, 222, 223, 224, 225, 226, 227, 228, 229, 230, 231, 232, 233, 234, 235, 236, 237],
      "LargestImagePixelValue": [2501, 2529, 2672, 1805, 2010, 2423, 1867, 2316, 2191, 2299, 2668, 1975, 3021, 1762, 1917, 2564, 1837, 1834, 1862, 2188, 1948, 2291, 1898, 2034, 1964, 2667, 1815, 2283, 1840, 1829, 2985, 1841, 2900, 1862, 2677, 1796, 2107, 1802, 2653, 2245, 1800, 2193, 1746, 2092, 2622, 1833, 1990, 2137, 2058, 1832, 2693, 2084, 1784, 2696, 1798, 1870, 2484, 1777, 1744, 2345, 2232, 1989, 1811, 2705, 1779, 1804, 1812, 1767, 2125, 1951, 2418, 2263, 1899, 2828, 1753, 1757, 2440, 1823, 1738, 1834, 2169, 2320, 1890, 1740, 2471, 1936, 2801, 1763, 1784, 1816, 2845, 2076, 1890, 1911, 2495, 2110, 1884, 1969, 2293, 1918, 2841, 1876, 2441, 1959, 2145, 2361, 2101, 1874, 2746, 1849, 1827, 2533, 1856, 1900, 2767, 2036, 2005, 2656, 1885, 2129, 1927, 2091, 2456, 1891, 1807, 2819, 1946, 1913, 1935, 2513, 2827, 2009, 1861, 2535, 1764, 1939, 1834, 2422, 1788, 1811, 1866, 2812, 1821, 1827, 2674, 1892, 1928, 1854, 1877, 2818, 1806, 1998, 1912, 1934, 2915, 1925, 1985, 2255, 2217, 1887, 1898, 2845, 1827, 1892, 1996, 1908, 2454, 1841, 1833, 1835, 1916, 2870, 1737, 1825, 1879, 1890, 3034, 2093, 1865, 1833, 2648, 2307, 1874, 2825, 1756, 1745, 2819, 1871, 1837, 2248, 2125, 2322, 1811, 1833, 1874, 2316, 1966, 1812, 2082, 2895, 1724, 2019, 2493, 1852, 1860, 2489, 2218, 1867, 1846, 2827, 1924, 1773, 1850, 1894, 2847, 2246, 1871, 2581, 1984, 2009, 1905, 2458, 1724, 1805, 2322, 1847, 2270, 2366, 3090, 1823, 2099, 2002, 1948, 1902, 2923, 1927, 1800],
      "WindowCenter": [726.0, 723.0, 722.0, 721.0, 725.0, 726.0, 723.0, 724.0, 724.0, 724.0, 724.0, 721.0, 723.0, 720.0, 721.0, 722.0, 720.0, 720.0, 722.0, 721.0, 723.0, 723.0, 721.0, 722.0, 722.0, 722.0, 722.0, 723.0, 722.0, 724.0, 724.0, 721.0, 721.0, 718.0, 720.0, 717.0, 718.0, 717.0, 720.0, 719.0, 718.0, 719.0, 717.0, 720.0, 721.0, 719.0, 719.0, 720.0, 720.0, 719.0, 722.0, 720.0, 719.0, 721.0, 719.0, 719.0, 721.0, 719.0, 720.0, 723.0, 721.0, 719.0, 720.0, 722.0, 718.0, 719.0, 720.0, 720.0, 723.0, 722.0, 723.0, 722.0, 720.0, 724.0, 720.0, 721.0, 723.0, 722.0, 722.0, 722.0, 724.0, 724.0, 722.0, 721.0, 723.0, 721.0, 724.0, 721.0, 721.0, 721.0, 724.0, 722.0, 722.0, 722.0, 723.0, 721.0, 721.0, 722.0, 723.0, 722.0, 723.0, 723.0, 726.0, 723.0, 723.0, 723.0, 723.0, 722.0, 723.0, 721.0, 722.0, 724.0, 722.0, 723.0, 725.0, 724.0, 723.0, 723.0, 722.0, 723.0, 722.0, 722.0, 724.0, 723.0, 723.0, 724.0, 721.0, 722.0, 723.0, 724.0, 723.0, 720.0, 720.0, 723.0, 721.0, 721.0, 721.0, 722.0, 720.0, 721.0, 722.0, 724.0, 721.0, 721.0, 723.0, 722.0, 722.0, 723.0, 722.0, 725.0, 723.0, 723.0, 722.0, 723.0, 724.0, 722.0, 723.0, 724.0, 722.0, 722.0, 722.0, 724.0, 720.0, 721.0, 721.0, 722.0, 723.0, 721.0, 721.0, 723.0, 722.0, 725.0, 722.0, 722.0, 722.0, 722.0, 725.0, 722.0, 721.0, 721.0, 724.0, 721.0, 720.0, 722.0, 719.0, 721.0, 722.0, 721.0, 720.0, 723.0, 723.0, 721.0, 720.0, 721.0, 722.0, 723.0, 722.0, 721.0, 723.0, 724.0, 721.0, 724.0, 724.0, 722.0, 721.0, 722.0, 722.0, 721.0, 722.0, 723.0, 721.0, 721.0, 723.0, 723.0, 725.0, 723.0, 722.0, 723.0, 722.0, 721.0, 721.0, 722.0, 720.0, 722.0, 723.0, 722.0, 723.0, 722.0, 722.0, 721.0, 723.0, 723.0, 722.0, 722.0, 724.0, 721.0, 721.0],
      "WindowWidth": [1600.0, 1591.0, 1588.0, 1583.0, 1596.0, 1601.0, 1592.0, 1596.0, 1594.0, 1592.0, 1594.0, 1585.0, 1590.0, 1582.0, 1584.0, 1590.0, 1582.0, 1582.0, 1586.0, 1587.0, 1589.0, 1589.0, 1584.0, 1589.0, 1586.0, 1589.0, 1586.0, 1590.0, 1587.0, 1592.0, 1593.0, 1582.0, 1585.0, 1576.0, 1582.0, 1573.0, 1577.0, 1572.0, 1583.0, 1578.0, 1574.0, 1577.0, 1573.0, 1582.0, 1584.0, 1579.0, 1578.0, 1582.0, 1580.0, 1580.0, 1589.0, 1580.0, 1579.0, 1587.0, 1577.0, 1578.0, 1586.0, 1578.0, 1582.0, 1590.0, 1584.0, 1579.0, 1582.0, 1587.0, 1576.0, 1577.0, 1582.0, 1583.0, 1592.0, 1589.0, 1592.0, 1588.0, 1581.0, 1592.0, 1579.0, 1582.0, 1591.0, 1586.0, 1585.0, 1586.0, 1595.0, 1593.0, 1586.0, 1584.0, 1592.0, 1586.0, 1593.0, 1584.0, 1583.0, 1585.0, 1594.0, 1586.0, 1586.0, 1586.0, 1591.0, 1585.0, 1584.0, 1586.0, 1591.0, 1585.0, 1591.0, 1591.0, 1599.0, 1591.0, 1589.0, 1592.0, 1590.0, 1585.0, 1591.0, 1584.0, 1586.0, 1593.0, 1588.0, 1590.0, 1597.0, 1592.0, 1587.0, 1590.0, 1586.0, 1590.0, 1587.0, 1588.0, 1593.0, 1589.0, 1591.0, 1596.0, 1585.0, 1587.0, 1589.0, 1593.0, 1592.0, 1580.0, 1581.0, 1592.0, 1583.0, 1583.0, 1584.0, 1589.0, 1582.0, 1584.0, 1585.0, 1594.0, 1584.0, 1585.0, 1590.0, 1586.0, 1587.0, 1589.0, 1588.0, 1596.0, 1589.0, 1590.0, 1587.0, 1588.0, 1595.0, 1585.0, 1589.0, 1592.0, 1587.0, 1586.0, 1588.0, 1594.0, 1580.0, 1583.0, 1584.0, 1586.0, 1590.0, 1583.0, 1584.0, 1589.0, 1587.0, 1596.0, 1584.0, 1586.0, 1587.0, 1587.0, 1596.0, 1586.0, 1583.0, 1584.0, 1594.0, 1586.0, 1582.0, 1589.0, 1578.0, 1581.0, 1589.0, 1582.0, 1582.0, 1588.0, 1588.0, 1585.0, 1581.0, 1584.0, 1587.0, 1590.0, 1586.0, 1585.0, 1588.0, 1593.0, 1584.0, 1593.0, 1593.0, 1585.0, 1584.0, 1588.0, 1587.0, 1584.0, 1585.0, 1591.0, 1584.0, 1584.0, 1589.0, 1589.0, 1596.0, 1588.0, 1588.0, 1592.0, 1586.0, 1584.0, 1583.0, 1587.0, 1580.0, 1588.0, 1591.0, 1586.0, 1591.0, 1587.0, 1588.0, 1583.0, 1591.0, 1591.0, 1587.0, 1587.0, 1595.0, 1585.0, 1582.0]
    },
    "slices": {}
  }
}