{
  "AcquisitionMatrixPE": 70,
  "AcquisitionNumber": 1,
  "AcquisitionTime": "11:06:51.760000",
  "BandwidthPerPixelPhaseEncode": 38.873,
  "BaseResolution": 70,
  "BodyPartExamined": "HEAD",
  "ConsistencyInfo": "N4_VE11B_LATEST_20150530",
  "ConversionSoftware": "dcm2niix",
  "ConversionSoftwareVersion": "v1.0.20190410  GCC6.3.0",
  "DerivedVendorReportedEchoSpacing": 0.000489996,
  "DeviceSerialNumber": "66088",
  "DwellTime": 2.9e-06,
  "EchoTime": 0.03,
  "EchoTrainLength": 53,
  "EffectiveEchoSpacing": 0.000367497,
  "FlipAngle": 90,
  "ImageOrientationPatientDICOM": [0.999962, -0.00857431, 0.00169351, 0.00872647, 0.990255, -0.138994],
  "ImageType": [
    "ORIGINAL",
    "PRIMARY",
    "M",
    "ND",
    "NORM",
    "MOSAIC"
],
  "ImagingFrequency": 123.191,
  "InPlanePhaseEncodingDirectionDICOM": "COL",
  "InstitutionAddress": "Street_StreetNo_City_District_IR_ZIP",
  "InstitutionName": "NBML",
  "InstitutionalDepartmentName": "Department",
  "MRAcquisitionType": "2D",
  "MagneticFieldStrength": 3,
  "Manufacturer": "Siemens",
  "ManufacturersModelName": "Prisma",
  "Modality": "MR",
  "ParallelReductionFactorInPlane": 2,
  "PartialFourier": 1,
  "PatientPosition": "HFS",
  "PercentPhaseFOV": 100,
  "PhaseEncodingDirection": "j-",
  "PhaseEncodingSteps": 105,
  "PhaseOversampling": 0.5,
  "PhaseResolution": 1,
  "PixelBandwidth": 2465,
  "ProcedureStepDescription": "Sh-Ka_P-96073-Dr_Khaligh",
  "ProtocolName": "ep2d_p2_Task_3.5_measurment:237",
  "PulseSequenceDetails": "%SiemensSeq%_ep2d_pace",
  "ReceiveCoilActiveElements": "HC1-7",
  "ReceiveCoilName": "HeadNeck_64",
  "ReconMatrixPE": 70,
  "RefLinesPE": 24,
  "RepetitionTime": 2,
  "SAR": 0.0896791,
  "ScanOptions": "FS",
  "ScanningSequence": "EP",
  "SequenceName": "_epfid2d1_70",
  "SequenceVariant": "SK_OSP",
  "SeriesDescription": "ep2d_p2_Task_3.5_measurment:237",
  "SeriesNumber": 8,
  "ShimSetting": [2614, -4457, -3288, 255, 41, 40, 13, -47],
  "SliceThickness": 3.5,
  "SliceTiming": [0.9875, 0, 1.0475, 0.0575, 1.105, 0.115, 1.1625, 0.1725, 1.2225, 0.2325, 1.28, 0.29, 1.3375, 0.3475, 1.3975, 0.4075, 1.455, 0.465, 1.5125, 0.5225, 1.57, 0.58, 1.63, 0.64, 1.6875, 0.6975, 1.745, 0.755, 1.805, 0.815, 1.8625, 0.8725, 1.92, 0.93],
  "SoftwareVersions": "syngo_MR_E11",
  "SpacingBetweenSlices": 3.85,
  "StationName": "AWP66088",
  "TaskName": "categorySelectivity",
  "TotalReadoutTime": 0.0253573,
  "TxRefAmp": 250.495,
  "dcmmeta_affine": [
    [-3.542721748352051, 0.030916646122932434, 0.0018681171350181103, 123.93219757080078],
    [0.03037755936384201, 3.508331298828125, -0.5351635813713074, -117.07767486572266],
    [0.0059998538345098495, 0.49243608117103577, 3.8126232624053955, -61.845829010009766],
    [0.0, 0.0, 0.0, 1.0]
],
  "dcmmeta_reorient_transform": [
    [0.0, -1.0, 0.0, 69.0],
    [1.0, 0.0, 0.0, 0.0],
    [0.0, 0.0, 1.0, 0.0],
    [0.0, 0.0, 0.0, 1.0]
],
  "dcmmeta_shape": [70, 70, 34, 237],
  "dcmmeta_slice_dim": 2,
  "dcmmeta_version": 0.6,
  "global": {
    "const": {
      "AccessionNumber": "MB",
      "AcquisitionMatrix": [70, 0, 0, 70],
      "AngioFlag": "N",
      "BitsAllocated": 16,
      "BitsStored": 12,
      "BodyPartExamined": "HEAD",
      "Columns": 420,
      "EchoNumbers": 1,
      "EchoTime": 30.0,
      "EchoTrainLength": 53,
      "FlipAngle": 90.0,
      "HighBit": 11,
      "ImageOrientationPatient": [0.99996180588438, -0.0085743108247, 0.00169350711248, 0.00872647287947, 0.99025476571649, -0.1389940561566],
      "ImagePositionPatient": [-751.4521859392, -733.63906526905, 57.258603903369],
      "ImageType": [
        "ORIGINAL",
        "PRIMARY",
        "M",
        "ND",
        "NORM",
        "MOSAIC"
],
      "ImagedNucleus": "1H",
      "ImagingFrequency": 123.191155,
      "InPlanePhaseEncodingDirection": "COL",
      "MRAcquisitionType": "2D",
      "MagneticFieldStrength": 3.0,
      "Manufacturer": "SIEMENS",
      "ManufacturerModelName": "Prisma",
      "Modality": "MR",
      "NumberOfAverages": 1.0,
      "NumberOfPhaseEncodingSteps": 105,
      "PercentPhaseFieldOfView": 100.0,
      "PercentSampling": 100.0,
      "PerformedProcedureStepStartTime": "100008.950000",
      "PhotometricInterpretation": "MONOCHROME2",
      "PixelBandwidth": 2465.0,
      "PixelRepresentation": 0,
      "PixelSpacing": [3.542857170105, 3.542857170105],
      "ProtocolName": "ep2d_p2_Task_3.5_measurment:237",
      "RepetitionTime": 2000.0,
      "Rows": 420,
      "SAR": 0.08967913076176,
      "SamplesPerPixel": 1,
      "ScanOptions": "FS",
      "ScanningSequence": "EP",
      "SequenceName": "*epfid2d1_70",
      "SequenceVariant": [
        "SK",
        "OSP"
],
      "SeriesDescription": "ep2d_p2_Task_3.5_measurment:237",
      "SeriesNumber": 8,
      "SeriesTime": "110732.349000",
      "SliceLocation": -44.911069070486,
      "SliceThickness": 3.5,
      "SmallestImagePixelValue": 0,
      "SoftwareVersions": "syngo MR E11",
      "SpacingBetweenSlices": 3.8499999231658,
      "SpecificCharacterSet": "ISO_IR 100",
      "StudyID": "1",
      "StudyTime": "100008.883000",
      "TransmitCoilName": "Body",
      "VariableFlipAngleFlag": "N",
      "WindowCenterWidthExplanation": "Algo1",
      "dBdt": 0.0},
    "slices": {}
  },
  "time": {
    "samples": {
      "AcquisitionNumber": [1, 2, 3, 4, 5, 6, 7, 8, 9, 10, 11, 12, 13, 14, 15, 16, 17, 18, 19, 20, 21, 22, 23, 24, 25, 26, 27, 28, 29, 30, 31, 32, 33, 34, 35, 36, 37, 38, 39, 40, 41, 42, 43, 44, 45, 46, 47, 48, 49, 50, 51, 52, 53, 54, 55, 56, 57, 58, 59, 60, 61, 62, 63, 64, 65, 66, 67, 68, 69, 70, 71, 72, 73, 74, 75, 76, 77, 78, 79, 80, 81, 82, 83, 84, 85, 86, 87, 88, 89, 90, 91, 92, 93, 94, 95, 96, 97, 98, 99, 100, 101, 102, 103, 104, 105, 106, 107, 108, 109, 110, 111, 112, 113, 114, 115, 116, 117, 118, 119, 120, 121, 122, 123, 124, 125, 126, 127, 128, 129, 130, 131, 132, 133, 134, 135, 136, 137, 138, 139, 140, 141, 142, 143, 144, 145, 146, 147, 148, 149, 150, 151, 152, 153, 154, 155, 156, 157, 158, 159, 160, 161, 162, 163, 164, 165, 166, 167, 168, 169, 170, 171, 172, 173, 174, 175, 176, 177, 178, 179, 180, 181, 182, 183, 184, 185, 186, 187, 188, 189, 190, 191, 192, 193, 194, 195, 196, 197, 198, 199, 200, 201, 202, 203, 204, 205, 206, 207, 208, 209, 210, 211, 212, 213, 214, 215, 216, 217, 218, 219, 220, 221, 222, 223, 224, 225, 226, 227, 228, 229, 230, 231, 232, 233, 234, 235, 236, 237],
      "AcquisitionTime": ["110651.760000", "110653.760000", "110655.760000", "110657.760000", "110659.760000", "110701.760000", "110703.760000", "110705.760000", "110707.760000", "110709.760000", "110711.760000", "110713.760000", "110715.760000", "110717.760000", "110719.760000", "110721.760000", "110723.760000", "110725.760000", "110727.760000", "110729.760000", "110731.760000", "110733.760000", "110735.760000", "110737.760000", "110739.760000", "110741.760000", "110743.760000", "110745.760000", "110747.760000", "110749.760000", "110751.760000", "110753.760000", "110755.760000", "110757.760000", "110759.760000", "110801.760000", "110803.760000", "110805.760000", "110807.760000", "110809.760000", "110811.760000", "110813.760000", "110815.760000", "110817.760000", "110819.760000", "110821.760000", "110823.760000", "110825.760000", "110827.760000", "110829.760000", "110831.760000", "110833.760000", "110835.760000", "110837.760000", "110839.760000", "110841.760000", "110843.760000", "110845.760000", "110847.760000", "110849.760000", "110851.760000", "110853.760000", "110855.760000", "110857.760000", "110859.760000", "110901.760000", "110903.760000", "110905.760000", "110907.760000", "110909.760000", "110911.760000", "110913.760000", "110915.760000", "110917.760000", "110919.760000", "110921.760000", "110923.760000", "110925.760000", "110927.760000", "110929.760000", "110931.760000", "110933.760000", "110935.760000", "110937.760000", "110939.760000", "110941.760000", "110943.760000", "110945.760000", "110947.760000", "110949.760000", "110951.760000", "110953.760000", "110955.760000", "110957.760000", "110959.760000", "111001.760000", "111003.760000", "111005.760000", "111007.760000", "111009.760000", "111011.760000", "111013.760000", "111015.760000", "111017.760000", "111019.760000", "111021.760000", "111023.760000", "111025.760000", "111027.760000", "111029.760000", "111031.760000", "111033.760000", "111035.760000", "111037.760000", "111039.760000", "111041.760000", "111043.760000", "111045.760000", "111047.760000", "111049.760000", "111051.760000", "111053.760000", "111055.760000", "111057.760000", "111059.760000", "111101.760000", "111103.760000", "111105.760000", "111107.760000", "111109.760000", "111111.760000", "111113.760000", "111115.760000", "111117.760000", "111119.760000", "111121.760000", "111123.760000", "111125.760000", "111127.760000", "111129.760000", "111131.760000", "111133.760000", "111135.760000", "111137.760000", "111139.760000", "111141.760000", "111143.760000", "111145.760000", "111147.760000", "111149.760000", "111151.760000", "111153.760000", "111155.760000", "111157.760000", "111159.760000", "111201.760000", "111203.760000", "111205.760000", "111207.760000", "111209.760000", "111211.760000", "111213.760000", "111215.760000", "111217.760000", "111219.760000", "111221.760000", "111223.760000", "111225.760000", "111227.760000", "111229.760000", "111231.760000", "111233.760000", "111235.760000", "111237.760000", "111239.760000", "111241.760000", "111243.760000", "111245.760000", "111247.760000", "111249.760000", "111251.760000", "111253.760000", "111255.760000", "111257.760000", "111259.760000", "111301.760000", "111303.760000", "111305.760000", "111307.760000", "111309.760000", "111311.760000", "111313.760000", "111315.760000", "111317.760000", "111319.760000", "111321.760000", "111323.760000", "111325.760000", "111327.760000", "111329.760000", "111331.760000", "111333.760000", "111335.760000", "111337.760000", "111339.760000", "111341.760000", "111343.760000", "111345.760000", "111347.760000", "111349.760000", "111351.760000", "111353.760000", "111355.760000", "111357.760000", "111359.760000", "111401.760000", "111403.760000", "111405.760000", "111407.760000", "111409.760000", "111411.760000", "111413.760000", "111415.760000", "111417.760000", "111419.760000", "111421.760000", "111423.760000", "111425.760000", "111427.760000", "111429.760000", "111431.760000", "111433.760000", "111435.760000", "111437.760000", "111439.760000", "111441.760000", "111443.760000"],
      "ContentTime": ["110732.352000", "110732.356000", "110732.358000", "110732.361000", "110732.363000", "110732.365000", "110732.381000", "110732.384000", "110732.386000", "110732.389000", "110732.391000", "110732.394000", "110732.396000", "110732.399000", "110732.401000", "110732.403000", "110732.406000", "110732.408000", "110732.411000", "110732.413000", "110812.349000", "110812.352000", "110812.355000", "110812.358000", "110812.361000", "110812.364000", "110812.368000", "110812.371000", "110812.374000", "110812.377000", "110812.381000", "110812.384000", "110812.387000", "110812.390000", "110812.393000", "110812.406000", "110812.409000", "110812.412000", "110812.416000", "110812.419000", "110852.349000", "110852.352000", "110852.363000", "110852.366000", "110852.369000", "110852.372000", "110852.375000", "110852.378000", "110852.381000", "110852.384000", "110852.388000", "110852.391000", "110852.394000", "110852.397000", "110852.400000", "110852.403000", "110852.406000", "110852.409000", "110852.412000", "110852.415000", "110932.347000", "110932.350000", "110932.353000", "110932.355000", "110932.357000", "110932.360000", "110932.362000", "110932.365000", "110932.367000", "110932.369000", "110932.372000", "110932.374000", "110932.377000", "110932.379000", "110932.382000", "110932.384000", "110932.386000", "110932.389000", "110932.391000", "110932.394000", "111012.349000", "111012.352000", "111012.356000", "111012.359000", "111012.362000", "111012.365000", "111012.368000", "111012.371000", "111012.374000", "111012.377000", "111012.381000", "111012.393000", "111012.396000", "111012.399000", "111012.403000", "111012.406000", "111012.409000", "111012.416000", "111012.420000", "111012.423000", "111052.349000", "111052.352000", "111052.356000", "111052.359000", "111052.362000", "111052.365000", "111052.376000", "111052.379000", "111052.382000", "111052.385000", "111052.389000", "111052.392000", "111052.395000", "111052.398000", "111052.401000", "111052.405000", "111052.408000", "111052.411000", "111052.414000", "111052.417000", "111132.349000", "111132.352000", "111132.354000", "111132.356000", "111132.359000", "111132.361000", "111132.364000", "111132.366000", "111132.369000", "111132.371000", "111132.374000", "111132.376000", "111132.378000", "111132.381000", "111132.383000", "111132.386000", "111132.388000", "111132.391000", "111132.393000", "111132.395000", "111212.348000", "111212.351000", "111212.354000", "111212.357000", "111212.361000", "111212.364000", "111212.367000", "111212.370000", "111212.373000", "111212.376000", "111212.379000", "111212.382000", "111212.385000", "111212.388000", "111212.392000", "111212.395000", "111212.398000", "111212.401000", "111212.404000", "111212.408000", "111252.349000", "111252.352000", "111252.355000", "111252.358000", "111252.361000", "111252.365000", "111252.368000", "111252.371000", "111252.374000", "111252.377000", "111252.380000", "111252.383000", "111252.386000", "111252.389000", "111252.392000", "111252.395000", "111252.399000", "111252.402000", "111252.405000", "111252.408000", "111332.349000", "111332.352000", "111332.354000", "111332.357000", "111332.359000", "111332.362000", "111332.364000", "111332.366000", "111332.369000", "111332.371000", "111332.374000", "111332.376000", "111332.378000", "111332.381000", "111332.383000", "111332.386000", "111332.388000", "111332.390000", "111332.393000", "111332.395000", "111412.348000", "111412.351000", "111412.354000", "111412.357000", "111412.360000", "111412.363000", "111412.367000", "111412.370000", "111412.373000", "111412.376000", "111412.379000", "111412.382000", "111412.385000", "111412.388000", "111412.392000", "111412.395000", "111412.398000", "111412.401000", "111412.404000", "111412.408000", "111445.277000", "111445.280000", "111445.282000", "111445.285000", "111445.287000", "111445.290000", "111445.292000", "111445.295000", "111445.297000", "111445.299000", "111445.302000", "111445.304000", "111445.307000", "111445.312000", "111445.316000", "111445.333000", "111445.336000"],
      "InstanceCreationTime": ["110732.352000", "110732.356000", "110732.358000", "110732.361000", "110732.363000", "110732.365000", "110732.381000", "110732.384000", "110732.386000", "110732.389000", "110732.391000", "110732.394000", "110732.396000", "110732.399000", "110732.401000", "110732.403000", "110732.406000", "110732.408000", "110732.411000", "110732.413000", "110812.349000", "110812.352000", "110812.355000", "110812.358000", "110812.361000", "110812.364000", "110812.368000", "110812.371000", "110812.374000", "110812.377000", "110812.381000", "110812.384000", "110812.387000", "110812.390000", "110812.393000", "110812.406000", "110812.409000", "110812.412000", "110812.416000", "110812.419000", "110852.349000", "110852.352000", "110852.363000", "110852.366000", "110852.369000", "110852.372000", "110852.375000", "110852.378000", "110852.381000", "110852.384000", "110852.388000", "110852.391000", "110852.394000", "110852.397000", "110852.400000", "110852.403000", "110852.406000", "110852.409000", "110852.412000", "110852.415000", "110932.347000", "110932.350000", "110932.353000", "110932.355000", "110932.357000", "110932.360000", "110932.362000", "110932.365000", "110932.367000", "110932.369000", "110932.372000", "110932.374000", "110932.377000", "110932.379000", "110932.382000", "110932.384000", "110932.386000", "110932.389000", "110932.391000", "110932.394000", "111012.349000", "111012.352000", "111012.356000", "111012.359000", "111012.362000", "111012.365000", "111012.368000", "111012.371000", "111012.374000", "111012.377000", "111012.381000", "111012.393000", "111012.396000", "111012.399000", "111012.403000", "111012.406000", "111012.409000", "111012.416000", "111012.420000", "111012.423000", "111052.349000", "111052.352000", "111052.356000", "111052.359000", "111052.362000", "111052.365000", "111052.376000", "111052.379000", "111052.382000", "111052.385000", "111052.389000", "111052.392000", "111052.395000", "111052.398000", "111052.401000", "111052.405000", "111052.408000", "111052.411000", "111052.414000", "111052.417000", "111132.349000", "111132.352000", "111132.354000", "111132.356000", "111132.359000", "111132.361000", "111132.364000", "111132.366000", "111132.369000", "111132.371000", "111132.374000", "111132.376000", "111132.378000", "111132.381000", "111132.383000", "111132.386000", "111132.388000", "111132.391000", "111132.393000", "111132.395000", "111212.348000", "111212.351000", "111212.354000", "111212.357000", "111212.361000", "111212.364000", "111212.367000", "111212.370000", "111212.373000", "111212.376000", "111212.379000", "111212.382000", "111212.385000", "111212.388000", "111212.392000", "111212.395000", "111212.398000", "111212.401000", "111212.404000", "111212.408000", "111252.349000", "111252.352000", "111252.355000", "111252.358000", "111252.361000", "111252.365000", "111252.368000", "111252.371000", "111252.374000", "111252.377000", "111252.380000", "111252.383000", "111252.386000", "111252.389000", "111252.392000", "111252.395000", "111252.399000", "111252.402000", "111252.405000", "111252.408000", "111332.349000", "111332.352000", "111332.354000", "111332.357000", "111332.359000", "111332.362000", "111332.364000", "111332.366000", "111332.369000", "111332.371000", "111332.374000", "111332.376000", "111332.378000", "111332.381000", "111332.383000", "111332.386000", "111332.388000", "111332.390000", "111332.393000", "111332.395000", "111412.348000", "111412.351000", "111412.354000", "111412.357000", "111412.360000", "111412.363000", "111412.367000", "111412.370000", "111412.373000", "111412.376000", "111412.379000", "111412.382000", "111412.385000", "111412.388000", "111412.392000", "111412.395000", "111412.398000", "111412.401000", "111412.404000", "111412.408000", "111445.277000", "111445.280000", "111445.282000", "111445.285000", "111445.287000", "111445.290000", "111445.292000", "111445.295000", "111445.297000", "111445.299000", "111445.302000", "111445.304000", "111445.307000", "111445.312000", "111445.316000", "111445.333000", "111445.336000"],
      "InstanceNumber": [1, 2, 3, 4, 5, 6, 7, 8, 9, 10, 11, 12, 13, 14, 15, 16, 17, 18, 19, 20, 21, 22, 23, 24, 25, 26, 27, 28, 29, 30, 31, 32, 33, 34, 35, 36, 37, 38, 39, 40, 41, 42, 43, 44, 45, 46, 47, 48, 49, 50, 51, 52, 53, 54, 55, 56, 57, 58, 59, 60, 61, 62, 63, 64, 65, 66, 67, 68, 69, 70, 71, 72, 73, 74, 75, 76, 77, 78, 79, 80, 81, 82, 83, 84, 85, 86, 87, 88, 89, 90, 91, 92, 93, 94, 95, 96, 97, 98, 99, 100, 101, 102, 103, 104, 105, 106, 107, 108, 109, 110, 111, 112, 113, 114, 115, 116, 117, 118, 119, 120, 121, 122, 123, 124, 125, 126, 127, 128, 129, 130, 131, 132, 133, 134, 135, 136, 137, 138, 139, 140, 141, 142, 143, 144, 145, 146, 147, 148, 149, 150, 151, 152, 153, 154, 155, 156, 157, 158, 159, 160, 161, 162, 163, 164, 165, 166, 167, 168, 169, 170, 171, 172, 173, 174, 175, 176, 177, 178, 179, 180, 181, 182, 183, 184, 185, 186, 187, 188, 189, 190, 191, 192, 193, 194, 195, 196, 197, 198, 199, 200, 201, 202, 203, 204, 205, 206, 207, 208, 209, 210, 211, 212, 213, 214, 215, 216, 217, 218, 219, 220, 221, 222, 223, 224, 225, 226, 227, 228, 229, 230, 231, 232, 233, 234, 235, 236, 237],
      "LargestImagePixelValue": [2455, 1970, 2163, 2739, 1912, 1883, 2623, 2015, 2031, 2597, 2236, 1887, 2658, 1889, 2495, 2619, 1856, 1930, 1826, 1824, 1882, 1938, 1897, 2313, 1824, 1932, 2526, 1913, 1889, 2588, 1854, 1963, 2701, 1746, 1865, 1991, 2360, 1958, 1803, 2058, 1892, 1858, 1958, 2831, 1801, 1847, 2043, 1983, 1978, 2644, 2294, 1769, 2423, 2356, 1799, 1989, 2628, 1836, 2017, 1900, 2888, 1851, 1838, 1993, 1844, 2382, 2201, 1883, 2470, 1776, 2005, 2668, 1729, 2725, 1795, 1969, 1882, 2441, 2254, 2048, 2056, 2749, 2006, 2364, 1769, 2146, 1828, 1997, 1922, 2600, 2010, 2302, 1887, 1855, 2590, 1936, 1960, 2484, 1903, 1872, 2706, 1851, 1881, 2651, 2045, 1865, 1887, 2746, 1919, 1787, 1932, 2001, 1969, 2648, 2841, 1921, 1758, 1975, 1808, 1916, 2575, 2325, 1950, 1805, 2643, 1720, 1950, 2318, 2291, 1889, 2099, 1801, 1911, 1965, 2749, 1734, 1836, 1771, 1818, 1827, 1932, 2941, 1908, 1845, 2225, 2190, 1970, 1901, 2838, 1849, 1943, 1946, 2252, 1849, 2438, 1806, 1876, 1897, 1907, 2647, 1874, 1890, 2244, 1716, 1953, 1764, 2134, 1962, 1967, 1979, 2546, 1915, 1913, 1856, 1970, 2670, 1852, 2458, 2050, 1840, 1841, 2753, 1929, 1789, 2037, 1865, 2514, 1921, 1974, 2052, 2704, 1998, 1715, 1805, 2584, 1825, 1830, 2064, 1920, 2810, 1935, 1863, 1804, 1933, 2657, 1856, 1794, 1852, 2248, 1936, 1887, 1875, 1953, 2149, 2040, 1916, 1779, 1780, 1776, 2526, 1931, 2234, 2273, 2364, 1894, 1936, 2229, 1940, 1874, 1989, 1901, 2326, 1906, 2459, 1851, 2024, 2099],
      "WindowCenter": [728.0, 725.0, 724.0, 725.0, 724.0, 726.0, 729.0, 726.0, 725.0, 725.0, 724.0, 725.0, 726.0, 725.0, 724.0, 723.0, 722.0, 722.0, 721.0, 722.0, 722.0, 722.0, 723.0, 724.0, 721.0, 723.0, 725.0, 723.0, 724.0, 726.0, 724.0, 724.0, 726.0, 723.0, 723.0, 725.0, 726.0, 725.0, 723.0, 723.0, 723.0, 724.0, 724.0, 726.0, 723.0, 724.0, 725.0, 725.0, 724.0, 726.0, 724.0, 724.0, 726.0, 726.0, 724.0, 725.0, 725.0, 724.0, 724.0, 724.0, 725.0, 722.0, 723.0, 724.0, 723.0, 726.0, 725.0, 724.0, 724.0, 723.0, 725.0, 727.0, 723.0, 725.0, 723.0, 725.0, 725.0, 726.0, 724.0, 723.0, 723.0, 725.0, 722.0, 724.0, 722.0, 724.0, 724.0, 725.0, 724.0, 725.0, 723.0, 724.0, 722.0, 723.0, 725.0, 723.0, 724.0, 725.0, 723.0, 724.0, 728.0, 725.0, 725.0, 725.0, 725.0, 724.0, 725.0, 726.0, 724.0, 724.0, 725.0, 725.0, 724.0, 725.0, 724.0, 722.0, 723.0, 724.0, 725.0, 725.0, 726.0, 725.0, 723.0, 723.0, 726.0, 723.0, 724.0, 725.0, 725.0, 724.0, 725.0, 723.0, 724.0, 724.0, 726.0, 723.0, 723.0, 724.0, 724.0, 724.0, 724.0, 726.0, 723.0, 723.0, 726.0, 726.0, 724.0, 724.0, 726.0, 723.0, 724.0, 724.0, 725.0, 723.0, 725.0, 723.0, 724.0, 724.0, 725.0, 726.0, 723.0, 723.0, 725.0, 725.0, 726.0, 725.0, 725.0, 724.0, 725.0, 725.0, 726.0, 723.0, 724.0, 724.0, 724.0, 728.0, 725.0, 725.0, 725.0, 723.0, 724.0, 726.0, 723.0, 724.0, 725.0, 726.0, 725.0, 724.0, 724.0, 725.0, 725.0, 724.0, 723.0, 724.0, 724.0, 723.0, 723.0, 723.0, 725.0, 726.0, 724.0, 724.0, 724.0, 725.0, 726.0, 724.0, 724.0, 724.0, 724.0, 724.0, 724.0, 724.0, 724.0, 725.0, 724.0, 724.0, 723.0, 725.0, 725.0, 727.0, 725.0, 726.0, 727.0, 725.0, 724.0, 724.0, 724.0, 723.0, 724.0, 725.0, 725.0, 725.0, 724.0, 725.0, 724.0, 724.0, 724.0],
      "WindowWidth": [1607.0, 1598.0, 1595.0, 1599.0, 1594.0, 1600.0, 1608.0, 1599.0, 1597.0, 1597.0, 1594.0, 1595.0, 1601.0, 1597.0, 1595.0, 1592.0, 1587.0, 1587.0, 1584.0, 1587.0, 1588.0, 1588.0, 1591.0, 1593.0, 1586.0, 1589.0, 1597.0, 1591.0, 1593.0, 1600.0, 1595.0, 1595.0, 1600.0, 1589.0, 1591.0, 1595.0, 1601.0, 1595.0, 1590.0, 1592.0, 1591.0, 1592.0, 1596.0, 1601.0, 1592.0, 1594.0, 1597.0, 1596.0, 1594.0, 1600.0, 1596.0, 1594.0, 1600.0, 1600.0, 1592.0, 1595.0, 1598.0, 1593.0, 1595.0, 1593.0, 1599.0, 1588.0, 1589.0, 1593.0, 1592.0, 1600.0, 1598.0, 1592.0, 1596.0, 1590.0, 1596.0, 1604.0, 1589.0, 1597.0, 1591.0, 1596.0, 1595.0, 1599.0, 1594.0, 1591.0, 1591.0, 1596.0, 1589.0, 1592.0, 1586.0, 1593.0, 1593.0, 1596.0, 1594.0, 1597.0, 1591.0, 1594.0, 1590.0, 1590.0, 1598.0, 1590.0, 1593.0, 1596.0, 1591.0, 1594.0, 1605.0, 1596.0, 1595.0, 1599.0, 1596.0, 1593.0, 1597.0, 1602.0, 1592.0, 1594.0, 1597.0, 1595.0, 1594.0, 1597.0, 1595.0, 1586.0, 1589.0, 1593.0, 1597.0, 1597.0, 1602.0, 1598.0, 1592.0, 1590.0, 1600.0, 1591.0, 1593.0, 1597.0, 1597.0, 1592.0, 1594.0, 1590.0, 1593.0, 1594.0, 1602.0, 1590.0, 1591.0, 1593.0, 1595.0, 1593.0, 1593.0, 1602.0, 1591.0, 1591.0, 1599.0, 1599.0, 1595.0, 1593.0, 1599.0, 1590.0, 1593.0, 1593.0, 1597.0, 1591.0, 1596.0, 1591.0, 1594.0, 1594.0, 1597.0, 1602.0, 1592.0, 1590.0, 1598.0, 1595.0, 1598.0, 1595.0, 1597.0, 1595.0, 1596.0, 1596.0, 1599.0, 1591.0, 1592.0, 1594.0, 1595.0, 1605.0, 1595.0, 1598.0, 1596.0, 1591.0, 1593.0, 1600.0, 1591.0, 1593.0, 1598.0, 1597.0, 1597.0, 1594.0, 1594.0, 1597.0, 1598.0, 1593.0, 1591.0, 1593.0, 1595.0, 1588.0, 1590.0, 1592.0, 1595.0, 1601.0, 1593.0, 1592.0, 1593.0, 1597.0, 1601.0, 1594.0, 1593.0, 1593.0, 1593.0, 1592.0, 1593.0, 1594.0, 1594.0, 1597.0, 1595.0, 1595.0, 1591.0, 1595.0, 1596.0, 1603.0, 1597.0, 1600.0, 1602.0, 1598.0, 1593.0, 1594.0, 1594.0, 1590.0, 1594.0, 1596.0, 1595.0, 1597.0, 1594.0, 1596.0, 1594.0, 1594.0, 1593.0]
    },
    "slices": {}
  }
}