{
  "AcquisitionMatrixPE": 70,
  "AcquisitionNumber": 1,
  "AcquisitionTime": "11:25:28.490000",
  "BandwidthPerPixelPhaseEncode": 38.873,
  "BaseResolution": 70,
  "BodyPartExamined": "HEAD",
  "ConsistencyInfo": "N4_VE11B_LATEST_20150530",
  "ConversionSoftware": "dcm2niix",
  "ConversionSoftwareVersion": "v1.0.20190410  GCC6.3.0",
  "DerivedVendorReportedEchoSpacing": 0.000489996,
  "DeviceSerialNumber": "66088",
  "DwellTime": 2.9e-06,
  "EchoTime": 0.03,
  "EchoTrainLength": 53,
  "EffectiveEchoSpacing": 0.000367497,
  "FlipAngle": 90,
  "ImageOrientationPatientDICOM": [0.999962, -0.00857431, 0.00169351, 0.00872647, 0.990255, -0.138994],
  "ImageType": [
    "ORIGINAL",
    "PRIMARY",
    "M",
    "ND",
    "NORM",
    "MOSAIC"
],
  "ImagingFrequency": 123.191,
  "InPlanePhaseEncodingDirectionDICOM": "COL",
  "InstitutionAddress": "Street_StreetNo_City_District_IR_ZIP",
  "InstitutionName": "NBML",
  "InstitutionalDepartmentName": "Department",
  "MRAcquisitionType": "2D",
  "MagneticFieldStrength": 3,
  "Manufacturer": "Siemens",
  "ManufacturersModelName": "Prisma",
  "Modality": "MR",
  "ParallelReductionFactorInPlane": 2,
  "PartialFourier": 1,
  "PatientPosition": "HFS",
  "PercentPhaseFOV": 100,
  "PhaseEncodingDirection": "j-",
  "PhaseEncodingSteps": 105,
  "PhaseOversampling": 0.5,
  "PhaseResolution": 1,
  "PixelBandwidth": 2465,
  "ProcedureStepDescription": "Sh-Ka_P-96073-Dr_Khaligh",
  "ProtocolName": "ep2d_p2_Task_3.5_measurment:237",
  "PulseSequenceDetails": "%SiemensSeq%_ep2d_pace",
  "ReceiveCoilActiveElements": "HC1-7",
  "ReceiveCoilName": "HeadNeck_64",
  "ReconMatrixPE": 70,
  "RefLinesPE": 24,
  "RepetitionTime": 2,
  "SAR": 0.0896791,
  "ScanOptions": "FS",
  "ScanningSequence": "EP",
  "SequenceName": "_epfid2d1_70",
  "SequenceVariant": "SK_OSP",
  "SeriesDescription": "ep2d_p2_Task_3.5_measurment:237",
  "SeriesNumber": 10,
  "ShimSetting": [2614, -4457, -3288, 255, 41, 40, 13, -47],
  "SliceThickness": 3.5,
  "SliceTiming": [0.99, 0, 1.0475, 0.0575, 1.1075, 0.1175, 1.165, 0.175, 1.2225, 0.2325, 1.28, 0.2925, 1.34, 0.35, 1.3975, 0.4075, 1.455, 0.465, 1.515, 0.525, 1.5725, 0.5825, 1.63, 0.64, 1.69, 0.7, 1.7475, 0.7575, 1.805, 0.815, 1.8625, 0.8725, 1.9225, 0.9325],
  "SoftwareVersions": "syngo_MR_E11",
  "SpacingBetweenSlices": 3.85,
  "StationName": "AWP66088",
  "TaskName": "categorySelectivity",
  "TotalReadoutTime": 0.0253573,
  "TxRefAmp": 250.495,
  "dcmmeta_affine": [
    [-3.542721748352051, 0.030916646122932434, 0.0018681171350181103, 123.93219757080078],
    [0.03037755936384201, 3.508331298828125, -0.5351635813713074, -117.07767486572266],
    [0.0059998538345098495, 0.49243608117103577, 3.8126232624053955, -61.845829010009766],
    [0.0, 0.0, 0.0, 1.0]
],
  "dcmmeta_reorient_transform": [
    [0.0, -1.0, 0.0, 69.0],
    [1.0, 0.0, 0.0, 0.0],
    [0.0, 0.0, 1.0, 0.0],
    [0.0, 0.0, 0.0, 1.0]
],
  "dcmmeta_shape": [70, 70, 34, 237],
  "dcmmeta_slice_dim": 2,
  "dcmmeta_version": 0.6,
  "global": {
    "const": {
      "AccessionNumber": "MB",
      "AcquisitionMatrix": [70, 0, 0, 70],
      "AngioFlag": "N",
      "BitsAllocated": 16,
      "BitsStored": 12,
      "BodyPartExamined": "HEAD",
      "Columns": 420,
      "EchoNumbers": 1,
      "EchoTime": 30.0,
      "EchoTrainLength": 53,
      "FlipAngle": 90.0,
      "HighBit": 11,
      "ImageOrientationPatient": [0.99996180588438, -0.0085743108247, 0.00169350711248, 0.00872647287947, 0.99025476571649, -0.1389940561566],
      "ImagePositionPatient": [-751.4521859392, -733.63906526905, 57.258603903369],
      "ImageType": [
        "ORIGINAL",
        "PRIMARY",
        "M",
        "ND",
        "NORM",
        "MOSAIC"
],
      "ImagedNucleus": "1H",
      "ImagingFrequency": 123.191153,
      "InPlanePhaseEncodingDirection": "COL",
      "MRAcquisitionType": "2D",
      "MagneticFieldStrength": 3.0,
      "Manufacturer": "SIEMENS",
      "ManufacturerModelName": "Prisma",
      "Modality": "MR",
      "NumberOfAverages": 1.0,
      "NumberOfPhaseEncodingSteps": 105,
      "PercentPhaseFieldOfView": 100.0,
      "PercentSampling": 100.0,
      "PerformedProcedureStepStartTime": "100008.950000",
      "PhotometricInterpretation": "MONOCHROME2",
      "PixelBandwidth": 2465.0,
      "PixelRepresentation": 0,
      "PixelSpacing": [3.542857170105, 3.542857170105],
      "ProtocolName": "ep2d_p2_Task_3.5_measurment:237",
      "RepetitionTime": 2000.0,
      "Rows": 420,
      "SAR": 0.08967913076176,
      "SamplesPerPixel": 1,
      "ScanOptions": "FS",
      "ScanningSequence": "EP",
      "SequenceName": "*epfid2d1_70",
      "SequenceVariant": [
        "SK",
        "OSP"
],
      "SeriesDescription": "ep2d_p2_Task_3.5_measurment:237",
      "SeriesNumber": 10,
      "SeriesTime": "112613.243000",
      "SliceLocation": -44.911069070486,
      "SliceThickness": 3.5,
      "SmallestImagePixelValue": 0,
      "SoftwareVersions": "syngo MR E11",
      "SpacingBetweenSlices": 3.8499999231658,
      "SpecificCharacterSet": "ISO_IR 100",
      "StudyID": "1",
      "StudyTime": "100008.883000",
      "TransmitCoilName": "Body",
      "VariableFlipAngleFlag": "N",
      "WindowCenterWidthExplanation": "Algo1",
      "dBdt": 0.0},
    "slices": {}
  },
  "time": {
    "samples": {
      "AcquisitionNumber": [1, 2, 3, 4, 5, 6, 7, 8, 9, 10, 11, 12, 13, 14, 15, 16, 17, 18, 19, 20, 21, 22, 23, 24, 25, 26, 27, 28, 29, 30, 31, 32, 33, 34, 35, 36, 37, 38, 39, 40, 41, 42, 43, 44, 45, 46, 47, 48, 49, 50, 51, 52, 53, 54, 55, 56, 57, 58, 59, 60, 61, 62, 63, 64, 65, 66, 67, 68, 69, 70, 71, 72, 73, 74, 75, 76, 77, 78, 79, 80, 81, 82, 83, 84, 85, 86, 87, 88, 89, 90, 91, 92, 93, 94, 95, 96, 97, 98, 99, 100, 101, 102, 103, 104, 105, 106, 107, 108, 109, 110, 111, 112, 113, 114, 115, 116, 117, 118, 119, 120, 121, 122, 123, 124, 125, 126, 127, 128, 129, 130, 131, 132, 133, 134, 135, 136, 137, 138, 139, 140, 141, 142, 143, 144, 145, 146, 147, 148, 149, 150, 151, 152, 153, 154, 155, 156, 157, 158, 159, 160, 161, 162, 163, 164, 165, 166, 167, 168, 169, 170, 171, 172, 173, 174, 175, 176, 177, 178, 179, 180, 181, 182, 183, 184, 185, 186, 187, 188, 189, 190, 191, 192, 193, 194, 195, 196, 197, 198, 199, 200, 201, 202, 203, 204, 205, 206, 207, 208, 209, 210, 211, 212, 213, 214, 215, 216, 217, 218, 219, 220, 221, 222, 223, 224, 225, 226, 227, 228, 229, 230, 231, 232, 233, 234, 235, 236, 237],
      "AcquisitionTime": ["112528.490000", "112530.490000", "112532.490000", "112534.490000", "112536.490000", "112538.490000", "112540.490000", "112542.490000", "112544.490000", "112546.490000", "112548.490000", "112550.490000", "112552.490000", "112554.490000", "112556.490000", "112558.490000", "112600.490000", "112602.490000", "112604.490000", "112606.490000", "112608.490000", "112610.490000", "112612.490000", "112614.490000", "112616.490000", "112618.490000", "112620.490000", "112622.490000", "112624.490000", "112626.490000", "112628.490000", "112630.490000", "112632.490000", "112634.490000", "112636.490000", "112638.490000", "112640.490000", "112642.490000", "112644.490000", "112646.490000", "112648.490000", "112650.490000", "112652.490000", "112654.490000", "112656.490000", "112658.490000", "112700.490000", "112702.490000", "112704.490000", "112706.490000", "112708.490000", "112710.490000", "112712.490000", "112714.490000", "112716.490000", "112718.490000", "112720.490000", "112722.490000", "112724.490000", "112726.490000", "112728.490000", "112730.490000", "112732.490000", "112734.490000", "112736.490000", "112738.490000", "112740.490000", "112742.490000", "112744.490000", "112746.490000", "112748.490000", "112750.490000", "112752.490000", "112754.490000", "112756.490000", "112758.490000", "112800.490000", "112802.490000", "112804.490000", "112806.490000", "112808.490000", "112810.490000", "112812.490000", "112814.490000", "112816.490000", "112818.490000", "112820.490000", "112822.490000", "112824.490000", "112826.490000", "112828.490000", "112830.490000", "112832.490000", "112834.490000", "112836.490000", "112838.490000", "112840.490000", "112842.490000", "112844.490000", "112846.490000", "112848.490000", "112850.490000", "112852.490000", "112854.490000", "112856.490000", "112858.490000", "112900.490000", "112902.490000", "112904.490000", "112906.490000", "112908.490000", "112910.490000", "112912.490000", "112914.490000", "112916.490000", "112918.490000", "112920.490000", "112922.490000", "112924.490000", "112926.490000", "112928.490000", "112930.490000", "112932.490000", "112934.490000", "112936.490000", "112938.490000", "112940.490000", "112942.490000", "112944.490000", "112946.490000", "112948.490000", "112950.490000", "112952.490000", "112954.490000", "112956.490000", "112958.490000", "113000.490000", "113002.490000", "113004.490000", "113006.490000", "113008.490000", "113010.490000", "113012.490000", "113014.490000", "113016.490000", "113018.490000", "113020.490000", "113022.490000", "113024.490000", "113026.490000", "113028.490000", "113030.490000", "113032.490000", "113034.490000", "113036.490000", "113038.490000", "113040.490000", "113042.490000", "113044.490000", "113046.490000", "113048.490000", "113050.490000", "113052.490000", "113054.490000", "113056.490000", "113058.490000", "113100.490000", "113102.490000", "113104.490000", "113106.490000", "113108.490000", "113110.490000", "113112.490000", "113114.490000", "113116.490000", "113118.490000", "113120.490000", "113122.490000", "113124.490000", "113126.490000", "113128.490000", "113130.490000", "113132.490000", "113134.490000", "113136.490000", "113138.490000", "113140.490000", "113142.490000", "113144.490000", "113146.490000", "113148.490000", "113150.490000", "113152.490000", "113154.490000", "113156.490000", "113158.490000", "113200.490000", "113202.490000", "113204.490000", "113206.490000", "113208.490000", "113210.490000", "113212.490000", "113214.490000", "113216.490000", "113218.490000", "113220.490000", "113222.490000", "113224.490000", "113226.490000", "113228.490000", "113230.490000", "113232.490000", "113234.490000", "113236.490000", "113238.490000", "113240.490000", "113242.490000", "113244.490000", "113246.490000", "113248.490000", "113250.490000", "113252.490000", "113254.490000", "113256.490000", "113258.490000", "113300.490000", "113302.490000", "113304.490000", "113306.490000", "113308.490000", "113310.490000", "113312.490000", "113314.490000", "113316.490000", "113318.490000", "113320.490000"],
      "ContentTime": ["112613.247000", "112613.252000", "112613.255000", "112613.258000", "112613.261000", "112613.264000", "112613.267000", "112613.270000", "112613.273000", "112613.277000", "112613.280000", "112613.283000", "112613.288000", "112613.291000", "112613.295000", "112613.298000", "112613.301000", "112613.304000", "112613.307000", "112613.310000", "112613.313000", "112613.324000", "112653.243000", "112653.246000", "112653.249000", "112653.252000", "112653.256000", "112653.259000", "112653.262000", "112653.266000", "112653.269000", "112653.272000", "112653.275000", "112653.279000", "112653.282000", "112653.285000", "112653.288000", "112653.291000", "112653.295000", "112653.298000", "112653.302000", "112653.306000", "112733.241000", "112733.244000", "112733.247000", "112733.251000", "112733.254000", "112733.257000", "112733.265000", "112733.268000", "112733.271000", "112733.274000", "112733.277000", "112733.281000", "112733.284000", "112733.287000", "112733.290000", "112733.293000", "112733.297000", "112733.300000", "112733.303000", "112733.307000", "112813.241000", "112813.244000", "112813.247000", "112813.250000", "112813.254000", "112813.257000", "112813.260000", "112813.263000", "112813.266000", "112813.270000", "112813.273000", "112813.276000", "112813.279000", "112813.282000", "112813.286000", "112813.289000", "112813.292000", "112813.295000", "112813.298000", "112813.301000", "112853.242000", "112853.245000", "112853.249000", "112853.252000", "112853.255000", "112853.258000", "112853.261000", "112853.264000", "112853.267000", "112853.271000", "112853.274000", "112853.277000", "112853.280000", "112853.284000", "112853.287000", "112853.290000", "112853.312000", "112853.316000", "112853.319000", "112853.322000", "112933.241000", "112933.245000", "112933.248000", "112933.251000", "112933.254000", "112933.258000", "112933.261000", "112933.264000", "112933.267000", "112933.270000", "112933.274000", "112933.277000", "112933.280000", "112933.283000", "112933.286000", "112933.290000", "112933.293000", "112933.297000", "112933.300000", "112933.303000", "113013.242000", "113013.245000", "113013.248000", "113013.251000", "113013.255000", "113013.258000", "113013.261000", "113013.264000", "113013.267000", "113013.271000", "113013.274000", "113013.277000", "113013.280000", "113013.284000", "113013.287000", "113013.290000", "113013.293000", "113013.296000", "113013.299000", "113013.302000", "113053.242000", "113053.245000", "113053.248000", "113053.252000", "113053.255000", "113053.258000", "113053.261000", "113053.264000", "113053.268000", "113053.271000", "113053.274000", "113053.277000", "113053.280000", "113053.284000", "113053.287000", "113053.291000", "113053.294000", "113053.297000", "113053.300000", "113053.303000", "113133.242000", "113133.245000", "113133.248000", "113133.252000", "113133.255000", "113133.258000", "113133.262000", "113133.265000", "113133.268000", "113133.271000", "113133.274000", "113133.278000", "113133.281000", "113133.284000", "113133.287000", "113133.291000", "113133.294000", "113133.297000", "113133.300000", "113133.303000", "113213.241000", "113213.244000", "113213.247000", "113213.251000", "113213.254000", "113213.257000", "113213.260000", "113213.263000", "113213.275000", "113213.278000", "113213.281000", "113213.285000", "113213.288000", "113213.291000", "113213.294000", "113213.297000", "113213.300000", "113213.303000", "113213.307000", "113213.310000", "113253.243000", "113253.246000", "113253.249000", "113253.253000", "113253.256000", "113253.259000", "113253.262000", "113253.265000", "113253.268000", "113253.272000", "113253.275000", "113253.278000", "113253.281000", "113253.286000", "113253.289000", "113253.292000", "113253.296000", "113253.299000", "113253.302000", "113253.305000", "113321.580000", "113321.582000", "113321.585000", "113321.587000", "113321.590000", "113321.592000", "113321.595000", "113321.597000", "113321.600000", "113321.602000", "113321.605000", "113321.607000", "113321.610000", "113321.613000", "113321.615000"],
      "InstanceCreationTime": ["112613.247000", "112613.252000", "112613.255000", "112613.258000", "112613.261000", "112613.264000", "112613.267000", "112613.270000", "112613.273000", "112613.277000", "112613.280000", "112613.283000", "112613.288000", "112613.291000", "112613.295000", "112613.298000", "112613.301000", "112613.304000", "112613.307000", "112613.310000", "112613.313000", "112613.324000", "112653.243000", "112653.246000", "112653.249000", "112653.252000", "112653.256000", "112653.259000", "112653.262000", "112653.266000", "112653.269000", "112653.272000", "112653.275000", "112653.279000", "112653.282000", "112653.285000", "112653.288000", "112653.291000", "112653.295000", "112653.298000", "112653.302000", "112653.306000", "112733.241000", "112733.244000", "112733.247000", "112733.251000", "112733.254000", "112733.257000", "112733.265000", "112733.268000", "112733.271000", "112733.274000", "112733.277000", "112733.281000", "112733.284000", "112733.287000", "112733.290000", "112733.293000", "112733.297000", "112733.300000", "112733.303000", "112733.307000", "112813.241000", "112813.244000", "112813.247000", "112813.250000", "112813.254000", "112813.257000", "112813.260000", "112813.263000", "112813.266000", "112813.270000", "112813.273000", "112813.276000", "112813.279000", "112813.282000", "112813.286000", "112813.289000", "112813.292000", "112813.295000", "112813.298000", "112813.301000", "112853.242000", "112853.245000", "112853.249000", "112853.252000", "112853.255000", "112853.258000", "112853.261000", "112853.264000", "112853.267000", "112853.271000", "112853.274000", "112853.277000", "112853.280000", "112853.284000", "112853.287000", "112853.290000", "112853.312000", "112853.316000", "112853.319000", "112853.322000", "112933.241000", "112933.245000", "112933.248000", "112933.251000", "112933.254000", "112933.258000", "112933.261000", "112933.264000", "112933.267000", "112933.270000", "112933.274000", "112933.277000", "112933.280000", "112933.283000", "112933.286000", "112933.290000", "112933.293000", "112933.297000", "112933.300000", "112933.303000", "113013.242000", "113013.245000", "113013.248000", "113013.251000", "113013.255000", "113013.258000", "113013.261000", "113013.264000", "113013.267000", "113013.271000", "113013.274000", "113013.277000", "113013.280000", "113013.284000", "113013.287000", "113013.290000", "113013.293000", "113013.296000", "113013.299000", "113013.302000", "113053.242000", "113053.245000", "113053.248000", "113053.252000", "113053.255000", "113053.258000", "113053.261000", "113053.264000", "113053.268000", "113053.271000", "113053.274000", "113053.277000", "113053.280000", "113053.284000", "113053.287000", "113053.291000", "113053.294000", "113053.297000", "113053.300000", "113053.303000", "113133.242000", "113133.245000", "113133.248000", "113133.252000", "113133.255000", "113133.258000", "113133.262000", "113133.265000", "113133.268000", "113133.271000", "113133.274000", "113133.278000", "113133.281000", "113133.284000", "113133.287000", "113133.291000", "113133.294000", "113133.297000", "113133.300000", "113133.303000", "113213.241000", "113213.244000", "113213.247000", "113213.251000", "113213.254000", "113213.257000", "113213.260000", "113213.263000", "113213.275000", "113213.278000", "113213.281000", "113213.285000", "113213.288000", "113213.291000", "113213.294000", "113213.297000", "113213.300000", "113213.303000", "113213.307000", "113213.310000", "113253.243000", "113253.246000", "113253.249000", "113253.253000", "113253.256000", "113253.259000", "113253.262000", "113253.265000", "113253.268000", "113253.272000", "113253.275000", "113253.278000", "113253.281000", "113253.286000", "113253.289000", "113253.292000", "113253.296000", "113253.299000", "113253.302000", "113253.305000", "113321.580000", "113321.582000", "113321.585000", "113321.587000", "113321.590000", "113321.592000", "113321.595000", "113321.597000", "113321.600000", "113321.602000", "113321.605000", "113321.607000", "113321.610000", "113321.613000", "113321.615000"],
      "InstanceNumber": [1, 2, 3, 4, 5, 6, 7, 8, 9, 10, 11, 12, 13, 14, 15, 16, 17, 18, 19, 20, 21, 22, 23, 24, 25, 26, 27, 28, 29, 30, 31, 32, 33, 34, 35, 36, 37, 38, 39, 40, 41, 42, 43, 44, 45, 46, 47, 48, 49, 50, 51, 52, 53, 54, 55, 56, 57, 58, 59, 60, 61, 62, 63, 64, 65, 66, 67, 68, 69, 70, 71, 72, 73, 74, 75, 76, 77, 78, 79, 80, 81, 82, 83, 84, 85, 86, 87, 88, 89, 90, 91, 92, 93, 94, 95, 96, 97, 98, 99, 100, 101, 102, 103, 104, 105, 106, 107, 108, 109, 110, 111, 112, 113, 114, 115, 116, 117, 118, 119, 120, 121, 122, 123, 124, 125, 126, 127, 128, 129, 130, 131, 132, 133, 134, 135, 136, 137, 138, 139, 140, 141, 142, 143, 144, 145, 146, 147, 148, 149, 150, 151, 152, 153, 154, 155, 156, 157, 158, 159, 160, 161, 162, 163, 164, 165, 166, 167, 168, 169, 170, 171, 172, 173, 174, 175, 176, 177, 178, 179, 180, 181, 182, 183, 184, 185, 186, 187, 188, 189, 190, 191, 192, 193, 194, 195, 196, 197, 198, 199, 200, 201, 202, 203, 204, 205, 206, 207, 208, 209, 210, 211, 212, 213, 214, 215, 216, 217, 218, 219, 220, 221, 222, 223, 224, 225, 226, 227, 228, 229, 230, 231, 232, 233, 234, 235, 236, 237],
      "LargestImagePixelValue": [3368, 2004, 1857, 1889, 1800, 2477, 1994, 1829, 1813, 2681, 1918, 2091, 1899, 1861, 3247, 1808, 2157, 1831, 1858, 1991, 2762, 1894, 1789, 2339, 1831, 2466, 1866, 2374, 1856, 2190, 2459, 2030, 1821, 1838, 2155, 1835, 2756, 1948, 2011, 1913, 2436, 2947, 1959, 1906, 1831, 1839, 2708, 1873, 1815, 1807, 3090, 1812, 2132, 2059, 1899, 2254, 3078, 2067, 1837, 1886, 3045, 1802, 1821, 1795, 2749, 1936, 1853, 1804, 2512, 2045, 1815, 2091, 1857, 1839, 2352, 2836, 1896, 1786, 1848, 3004, 1832, 2652, 1833, 2297, 2463, 1953, 1871, 2287, 1974, 1950, 2335, 2232, 2502, 2067, 1770, 1863, 2057, 1846, 3233, 2188, 1823, 1795, 2530, 2415, 1860, 2272, 1783, 1946, 1785, 2010, 1872, 2146, 1859, 2420, 1783, 1989, 1856, 1762, 3001, 2142, 2010, 1877, 1889, 1777, 1792, 2153, 1866, 2368, 2284, 1785, 2577, 1790, 1975, 2216, 2511, 1792, 1999, 2029, 1796, 2002, 1898, 2802, 2148, 1758, 1836, 2847, 1942, 1937, 1782, 2725, 1803, 2638, 2143, 1793, 1850, 1773, 1802, 1929, 2948, 1938, 2964, 2070, 2040, 1888, 2396, 2609, 2090, 1823, 1809, 1866, 1926, 1799, 2860, 1937, 1918, 1823, 1811, 2006, 3084, 2344, 1929, 2431, 1849, 1870, 1761, 2218, 1918, 2157, 1785, 2886, 2050, 1832, 1780, 2008, 2908, 2341, 1885, 1999, 1783, 1830, 2154, 1924, 2845, 1782, 1774, 1802, 1882, 1811, 2611, 1863, 3351, 2248, 1863, 1765, 2557, 2274, 2018, 2123, 1883, 2175, 2957, 1758, 2007, 1833, 1761, 1844, 1927, 1856, 1786, 2533, 1926, 1790, 1823, 1931, 1836, 2367, 2138],
      "WindowCenter": [724.0, 720.0, 720.0, 721.0, 721.0, 724.0, 721.0, 721.0, 722.0, 724.0, 722.0, 724.0, 724.0, 722.0, 724.0, 722.0, 723.0, 722.0, 722.0, 724.0, 724.0, 722.0, 722.0, 724.0, 722.0, 723.0, 721.0, 722.0, 721.0, 724.0, 723.0, 722.0, 722.0, 721.0, 722.0, 722.0, 724.0, 723.0, 723.0, 723.0, 724.0, 724.0, 722.0, 722.0, 722.0, 722.0, 724.0, 722.0, 723.0, 722.0, 724.0, 722.0, 726.0, 725.0, 723.0, 723.0, 724.0, 722.0, 722.0, 722.0, 725.0, 722.0, 722.0, 723.0, 725.0, 722.0, 721.0, 722.0, 724.0, 723.0, 721.0, 722.0, 722.0, 725.0, 726.0, 725.0, 723.0, 722.0, 723.0, 725.0, 723.0, 725.0, 722.0, 722.0, 722.0, 721.0, 721.0, 723.0, 723.0, 724.0, 725.0, 724.0, 725.0, 723.0, 722.0, 723.0, 724.0, 724.0, 725.0, 724.0, 722.0, 723.0, 724.0, 724.0, 721.0, 723.0, 721.0, 722.0, 721.0, 724.0, 723.0, 724.0, 723.0, 724.0, 723.0, 722.0, 721.0, 721.0, 724.0, 721.0, 722.0, 721.0, 721.0, 721.0, 721.0, 722.0, 722.0, 724.0, 724.0, 722.0, 724.0, 721.0, 723.0, 724.0, 724.0, 722.0, 724.0, 724.0, 723.0, 723.0, 723.0, 724.0, 722.0, 722.0, 722.0, 724.0, 722.0, 723.0, 722.0, 724.0, 722.0, 724.0, 722.0, 722.0, 722.0, 721.0, 724.0, 724.0, 726.0, 723.0, 725.0, 723.0, 723.0, 721.0, 723.0, 723.0, 722.0, 721.0, 720.0, 721.0, 721.0, 721.0, 725.0, 721.0, 721.0, 722.0, 724.0, 724.0, 726.0, 723.0, 723.0, 725.0, 723.0, 723.0, 722.0, 724.0, 723.0, 724.0, 723.0, 726.0, 723.0, 721.0, 723.0, 724.0, 725.0, 723.0, 723.0, 723.0, 722.0, 723.0, 723.0, 723.0, 724.0, 721.0, 722.0, 724.0, 725.0, 725.0, 727.0, 724.0, 725.0, 723.0, 721.0, 722.0, 725.0, 723.0, 721.0, 723.0, 722.0, 721.0, 722.0, 719.0, 721.0, 721.0, 721.0, 722.0, 722.0, 723.0, 724.0, 726.0, 723.0, 722.0, 721.0, 722.0, 722.0, 724.0, 724.0],
      "WindowWidth": [1595.0, 1580.0, 1580.0, 1584.0, 1583.0, 1592.0, 1585.0, 1582.0, 1588.0, 1593.0, 1588.0, 1594.0, 1591.0, 1587.0, 1596.0, 1587.0, 1590.0, 1586.0, 1589.0, 1593.0, 1595.0, 1586.0, 1588.0, 1595.0, 1586.0, 1590.0, 1583.0, 1588.0, 1584.0, 1593.0, 1592.0, 1588.0, 1586.0, 1585.0, 1587.0, 1587.0, 1594.0, 1591.0, 1591.0, 1590.0, 1594.0, 1594.0, 1586.0, 1588.0, 1586.0, 1587.0, 1595.0, 1588.0, 1588.0, 1588.0, 1596.0, 1586.0, 1598.0, 1595.0, 1589.0, 1591.0, 1595.0, 1586.0, 1586.0, 1588.0, 1597.0, 1585.0, 1587.0, 1590.0, 1597.0, 1588.0, 1585.0, 1586.0, 1594.0, 1588.0, 1584.0, 1588.0, 1587.0, 1595.0, 1597.0, 1597.0, 1590.0, 1588.0, 1589.0, 1597.0, 1588.0, 1596.0, 1586.0, 1588.0, 1588.0, 1584.0, 1584.0, 1589.0, 1590.0, 1591.0, 1596.0, 1594.0, 1596.0, 1591.0, 1585.0, 1588.0, 1591.0, 1591.0, 1597.0, 1592.0, 1587.0, 1590.0, 1595.0, 1593.0, 1583.0, 1589.0, 1583.0, 1587.0, 1585.0, 1592.0, 1590.0, 1592.0, 1589.0, 1593.0, 1587.0, 1587.0, 1582.0, 1582.0, 1593.0, 1586.0, 1585.0, 1584.0, 1584.0, 1584.0, 1585.0, 1588.0, 1587.0, 1592.0, 1592.0, 1587.0, 1593.0, 1584.0, 1589.0, 1592.0, 1593.0, 1586.0, 1593.0, 1592.0, 1589.0, 1590.0, 1589.0, 1595.0, 1588.0, 1587.0, 1588.0, 1595.0, 1587.0, 1591.0, 1587.0, 1594.0, 1586.0, 1593.0, 1588.0, 1586.0, 1585.0, 1584.0, 1592.0, 1592.0, 1601.0, 1589.0, 1597.0, 1590.0, 1588.0, 1584.0, 1590.0, 1589.0, 1585.0, 1582.0, 1581.0, 1585.0, 1583.0, 1585.0, 1595.0, 1584.0, 1583.0, 1586.0, 1591.0, 1591.0, 1599.0, 1590.0, 1589.0, 1596.0, 1589.0, 1588.0, 1588.0, 1593.0, 1588.0, 1593.0, 1590.0, 1600.0, 1589.0, 1584.0, 1588.0, 1591.0, 1596.0, 1589.0, 1588.0, 1589.0, 1588.0, 1589.0, 1591.0, 1589.0, 1593.0, 1583.0, 1587.0, 1591.0, 1594.0, 1595.0, 1601.0, 1591.0, 1597.0, 1589.0, 1584.0, 1586.0, 1594.0, 1588.0, 1584.0, 1589.0, 1586.0, 1584.0, 1588.0, 1577.0, 1583.0, 1582.0, 1583.0, 1585.0, 1586.0, 1588.0, 1591.0, 1598.0, 1589.0, 1584.0, 1584.0, 1586.0, 1587.0, 1593.0, 1592.0]
    },
    "slices": {}
  }
}