{
  "AcquisitionMatrixPE": 70,
  "AcquisitionNumber": 1,
  "AcquisitionTime": "10:21:42.382500",
  "BandwidthPerPixelPhaseEncode": 38.873,
  "BaseResolution": 70,
  "BodyPartExamined": "HEAD",
  "ConsistencyInfo": "N4_VE11B_LATEST_20150530",
  "ConversionSoftware": "dcm2niix",
  "ConversionSoftwareVersion": "v1.0.20190410  GCC6.3.0",
  "DerivedVendorReportedEchoSpacing": 0.000489996,
  "DeviceSerialNumber": "66088",
  "DwellTime": 2.9e-06,
  "EchoTime": 0.03,
  "EchoTrainLength": 53,
  "EffectiveEchoSpacing": 0.000367497,
  "FlipAngle": 90,
  "ImageOrientationPatientDICOM": [0.999503, 0.0194082, 0.0248396, -0.0104672, 0.947619, -0.319231],
  "ImageType": [
    "ORIGINAL",
    "PRIMARY",
    "M",
    "ND",
    "NORM",
    "MOSAIC"
],
  "ImagingFrequency": 123.191,
  "InPlanePhaseEncodingDirectionDICOM": "COL",
  "InstitutionAddress": "Street_StreetNo_City_District_IR_ZIP",
  "InstitutionName": "NBML",
  "InstitutionalDepartmentName": "Department",
  "MRAcquisitionType": "2D",
  "MagneticFieldStrength": 3,
  "Manufacturer": "Siemens",
  "ManufacturersModelName": "Prisma",
  "Modality": "MR",
  "ParallelReductionFactorInPlane": 2,
  "PartialFourier": 1,
  "PatientPosition": "HFS",
  "PercentPhaseFOV": 100,
  "PhaseEncodingDirection": "j-",
  "PhaseEncodingSteps": 105,
  "PhaseOversampling": 0.5,
  "PhaseResolution": 1,
  "PixelBandwidth": 2465,
  "ProcedureStepDescription": "NBML_Project_P-96169-Ebrahiminiya",
  "ProtocolName": "ep2d_p2_Task_3.5_measurment:237",
  "PulseSequenceDetails": "%SiemensSeq%_ep2d_pace",
  "ReceiveCoilActiveElements": "HC1-7",
  "ReceiveCoilName": "HeadNeck_64",
  "ReconMatrixPE": 70,
  "RefLinesPE": 24,
  "RepetitionTime": 2,
  "SAR": 0.0917256,
  "ScanOptions": "FS",
  "ScanningSequence": "EP",
  "SequenceName": "_epfid2d1_70",
  "SequenceVariant": "SK_OSP",
  "SeriesDescription": "ep2d_p2_Task_3.5_measurment:237",
  "SeriesNumber": 4,
  "ShimSetting": [2604, -4452, -3250, 405, -56, 89, -80, 21],
  "SliceThickness": 3.5,
  "SliceTiming": [0.99, 0, 1.05, 0.06, 1.1075, 0.1175, 1.165, 0.175, 1.225, 0.235, 1.2825, 0.2925, 1.34, 0.35, 1.3975, 0.41, 1.4575, 0.4675, 1.515, 0.525, 1.5725, 0.5825, 1.6325, 0.6425, 1.69, 0.7, 1.7475, 0.7575, 1.8075, 0.8175, 1.865, 0.875, 1.9225, 0.9325],
  "SoftwareVersions": "syngo_MR_E11",
  "SpacingBetweenSlices": 3.85,
  "StationName": "AWP66088",
  "TaskName": "categorySelectivity",
  "TotalReadoutTime": 0.0253573,
  "TxRefAmp": 231.029,
  "dcmmeta_affine": [
    [-3.5410964488983154, -0.03708377853035927, 0.11447670310735703, 121.81100463867188],
    [-0.06876049190759659, 3.357278823852539, -1.227428913116455, -88.25314331054688],
    [0.0880032554268837, 1.1309911012649536, 3.6473021507263184, -72.62296295166016],
    [0.0, 0.0, 0.0, 1.0]
],
  "dcmmeta_reorient_transform": [
    [0.0, -1.0, 0.0, 69.0],
    [1.0, 0.0, 0.0, 0.0],
    [0.0, 0.0, 1.0, 0.0],
    [0.0, 0.0, 0.0, 1.0]
],
  "dcmmeta_shape": [70, 70, 34, 237],
  "dcmmeta_slice_dim": 2,
  "dcmmeta_version": 0.6,
  "global": {
    "const": {
      "AccessionNumber": "M.BRZ",
      "AcquisitionMatrix": [70, 0, 0, 70],
      "AngioFlag": "N",
      "BitsAllocated": 16,
      "BitsStored": 12,
      "BodyPartExamined": "HEAD",
      "Columns": 420,
      "EchoNumbers": 1,
      "EchoTime": 30.0,
      "EchoTrainLength": 53,
      "FlipAngle": 90.0,
      "HighBit": 11,
      "ImageOrientationPatient": [0.99950303379017, 0.01940820286715, 0.02483962772892, -0.0104671957802, 0.94761900618691, -0.3192313532939],
      "ImagePositionPatient": [-732.45445168951, -742.95596765175, 187.93829602974],
      "ImageType": [
        "ORIGINAL",
        "PRIMARY",
        "M",
        "ND",
        "NORM",
        "MOSAIC"
],
      "ImagedNucleus": "1H",
      "ImagingFrequency": 123.191118,
      "InPlanePhaseEncodingDirection": "COL",
      "MRAcquisitionType": "2D",
      "MagneticFieldStrength": 3.0,
      "Manufacturer": "SIEMENS",
      "ManufacturerModelName": "Prisma",
      "Modality": "MR",
      "NumberOfAverages": 1.0,
      "NumberOfPhaseEncodingSteps": 105,
      "PercentPhaseFieldOfView": 100.0,
      "PercentSampling": 100.0,
      "PerformedProcedureStepStartTime": "100253.755000",
      "PhotometricInterpretation": "MONOCHROME2",
      "PixelBandwidth": 2465.0,
      "PixelRepresentation": 0,
      "PixelSpacing": [3.542857170105, 3.542857170105],
      "ProtocolName": "ep2d_p2_Task_3.5_measurment:237",
      "RepetitionTime": 2000.0,
      "Rows": 420,
      "SAR": 0.09172556813988,
      "SamplesPerPixel": 1,
      "ScanOptions": "FS",
      "ScanningSequence": "EP",
      "SequenceName": "*epfid2d1_70",
      "SequenceVariant": [
        "SK",
        "OSP"
],
      "SeriesDescription": "ep2d_p2_Task_3.5_measurment:237",
      "SeriesNumber": 4,
      "SeriesTime": "102241.825000",
      "SliceLocation": -37.04127277755,
      "SliceThickness": 3.5,
      "SmallestImagePixelValue": 0,
      "SoftwareVersions": "syngo MR E11",
      "SpacingBetweenSlices": 3.8499999060624,
      "SpecificCharacterSet": "ISO_IR 100",
      "StudyID": "1",
      "StudyTime": "100253.679000",
      "TransmitCoilName": "Body",
      "VariableFlipAngleFlag": "N",
      "WindowCenterWidthExplanation": "Algo1",
      "dBdt": 0.0},
    "slices": {}
  },
  "time": {
    "samples": {
      "AcquisitionNumber": [1, 2, 3, 4, 5, 6, 7, 8, 9, 10, 11, 12, 13, 14, 15, 16, 17, 18, 19, 20, 21, 22, 23, 24, 25, 26, 27, 28, 29, 30, 31, 32, 33, 34, 35, 36, 37, 38, 39, 40, 41, 42, 43, 44, 45, 46, 47, 48, 49, 50, 51, 52, 53, 54, 55, 56, 57, 58, 59, 60, 61, 62, 63, 64, 65, 66, 67, 68, 69, 70, 71, 72, 73, 74, 75, 76, 77, 78, 79, 80, 81, 82, 83, 84, 85, 86, 87, 88, 89, 90, 91, 92, 93, 94, 95, 96, 97, 98, 99, 100, 101, 102, 103, 104, 105, 106, 107, 108, 109, 110, 111, 112, 113, 114, 115, 116, 117, 118, 119, 120, 121, 122, 123, 124, 125, 126, 127, 128, 129, 130, 131, 132, 133, 134, 135, 136, 137, 138, 139, 140, 141, 142, 143, 144, 145, 146, 147, 148, 149, 150, 151, 152, 153, 154, 155, 156, 157, 158, 159, 160, 161, 162, 163, 164, 165, 166, 167, 168, 169, 170, 171, 172, 173, 174, 175, 176, 177, 178, 179, 180, 181, 182, 183, 184, 185, 186, 187, 188, 189, 190, 191, 192, 193, 194, 195, 196, 197, 198, 199, 200, 201, 202, 203, 204, 205, 206, 207, 208, 209, 210, 211, 212, 213, 214, 215, 216, 217, 218, 219, 220, 221, 222, 223, 224, 225, 226, 227, 228, 229, 230, 231, 232, 233, 234, 235, 236, 237],
      "AcquisitionTime": ["102142.382500", "102144.382500", "102146.382500", "102148.382500", "102150.382500", "102152.382500", "102154.382500", "102156.382500", "102158.382500", "102200.382500", "102202.382500", "102204.382500", "102206.382500", "102208.382500", "102210.382500", "102212.382500", "102214.382500", "102216.382500", "102218.382500", "102220.382500", "102222.382500", "102224.382500", "102226.382500", "102228.382500", "102230.382500", "102232.382500", "102234.382500", "102236.382500", "102238.382500", "102240.382500", "102242.382500", "102244.382500", "102246.382500", "102248.382500", "102250.382500", "102252.382500", "102254.382500", "102256.382500", "102258.382500", "102300.382500", "102302.382500", "102304.382500", "102306.382500", "102308.382500", "102310.382500", "102312.382500", "102314.382500", "102316.382500", "102318.382500", "102320.382500", "102322.382500", "102324.382500", "102326.382500", "102328.382500", "102330.382500", "102332.382500", "102334.382500", "102336.382500", "102338.382500", "102340.382500", "102342.382500", "102344.382500", "102346.382500", "102348.382500", "102350.382500", "102352.382500", "102354.382500", "102356.382500", "102358.382500", "102400.382500", "102402.382500", "102404.382500", "102406.382500", "102408.382500", "102410.382500", "102412.382500", "102414.382500", "102416.382500", "102418.382500", "102420.382500", "102422.382500", "102424.382500", "102426.382500", "102428.382500", "102430.382500", "102432.382500", "102434.382500", "102436.382500", "102438.382500", "102440.382500", "102442.382500", "102444.382500", "102446.382500", "102448.382500", "102450.382500", "102452.382500", "102454.382500", "102456.382500", "102458.382500", "102500.382500", "102502.382500", "102504.382500", "102506.382500", "102508.382500", "102510.382500", "102512.382500", "102514.382500", "102516.382500", "102518.382500", "102520.382500", "102522.382500", "102524.382500", "102526.382500", "102528.382500", "102530.382500", "102532.382500", "102534.382500", "102536.382500", "102538.382500", "102540.382500", "102542.382500", "102544.382500", "102546.382500", "102548.382500", "102550.382500", "102552.382500", "102554.382500", "102556.382500", "102558.382500", "102600.382500", "102602.382500", "102604.382500", "102606.382500", "102608.382500", "102610.382500", "102612.382500", "102614.382500", "102616.382500", "102618.382500", "102620.382500", "102622.382500", "102624.382500", "102626.382500", "102628.382500", "102630.382500", "102632.382500", "102634.382500", "102636.382500", "102638.382500", "102640.382500", "102642.382500", "102644.382500", "102646.382500", "102648.382500", "102650.382500", "102652.382500", "102654.382500", "102656.382500", "102658.382500", "102700.382500", "102702.382500", "102704.382500", "102706.382500", "102708.382500", "102710.382500", "102712.382500", "102714.382500", "102716.382500", "102718.382500", "102720.382500", "102722.382500", "102724.382500", "102726.382500", "102728.382500", "102730.382500", "102732.382500", "102734.382500", "102736.382500", "102738.382500", "102740.382500", "102742.382500", "102744.382500", "102746.382500", "102748.382500", "102750.382500", "102752.382500", "102754.382500", "102756.382500", "102758.382500", "102800.382500", "102802.382500", "102804.382500", "102806.382500", "102808.382500", "102810.382500", "102812.382500", "102814.382500", "102816.382500", "102818.382500", "102820.382500", "102822.382500", "102824.382500", "102826.382500", "102828.382500", "102830.382500", "102832.382500", "102834.382500", "102836.382500", "102838.382500", "102840.382500", "102842.382500", "102844.382500", "102846.382500", "102848.382500", "102850.382500", "102852.382500", "102854.382500", "102856.382500", "102858.382500", "102900.382500", "102902.382500", "102904.382500", "102906.382500", "102908.382500", "102910.382500", "102912.382500", "102914.382500", "102916.382500", "102918.382500", "102920.382500", "102922.382500", "102924.382500", "102926.382500", "102928.382500", "102930.382500", "102932.382500", "102934.382500"],
      "ContentTime": ["102241.829000", "102241.845000", "102241.847000", "102241.850000", "102241.852000", "102241.855000", "102241.857000", "102241.860000", "102241.862000", "102241.865000", "102241.867000", "102241.869000", "102241.872000", "102241.874000", "102241.877000", "102241.879000", "102241.882000", "102241.884000", "102241.886000", "102241.889000", "102241.892000", "102241.894000", "102241.896000", "102241.899000", "102241.901000", "102241.904000", "102241.906000", "102241.909000", "102241.911000", "102321.824000", "102321.827000", "102321.829000", "102321.832000", "102321.834000", "102321.836000", "102321.839000", "102321.841000", "102321.844000", "102321.846000", "102321.856000", "102321.858000", "102321.861000", "102321.863000", "102321.866000", "102321.868000", "102321.870000", "102321.879000", "102321.882000", "102321.884000", "102401.823000", "102401.826000", "102401.829000", "102401.831000", "102401.833000", "102401.836000", "102401.838000", "102401.841000", "102401.843000", "102401.846000", "102401.848000", "102401.865000", "102401.867000", "102401.870000", "102401.872000", "102401.874000", "102401.877000", "102401.879000", "102401.882000", "102401.884000", "102441.824000", "102441.827000", "102441.829000", "102441.832000", "102441.834000", "102441.837000", "102441.839000", "102441.841000", "102441.844000", "102441.846000", "102441.849000", "102441.851000", "102441.854000", "102441.856000", "102441.859000", "102441.861000", "102441.863000", "102441.866000", "102441.868000", "102441.871000", "102521.824000", "102521.827000", "102521.829000", "102521.831000", "102521.844000", "102521.846000", "102521.848000", "102521.851000", "102521.853000", "102521.856000", "102521.858000", "102521.861000", "102521.863000", "102521.865000", "102521.868000", "102521.870000", "102521.873000", "102521.875000", "102521.878000", "102521.880000", "102601.824000", "102601.826000", "102601.829000", "102601.831000", "102601.833000", "102601.836000", "102601.838000", "102601.841000", "102601.843000", "102601.846000", "102601.848000", "102601.850000", "102601.853000", "102601.855000", "102601.858000", "102601.860000", "102601.863000", "102601.865000", "102601.867000", "102601.870000", "102641.823000", "102641.826000", "102641.829000", "102641.831000", "102641.834000", "102641.836000", "102641.838000", "102641.841000", "102641.844000", "102641.846000", "102641.849000", "102641.851000", "102641.853000", "102641.856000", "102641.858000", "102641.861000", "102641.863000", "102641.865000", "102641.868000", "102641.870000", "102721.824000", "102721.826000", "102721.829000", "102721.831000", "102721.833000", "102721.836000", "102721.838000", "102721.841000", "102721.843000", "102721.846000", "102721.848000", "102721.851000", "102721.853000", "102721.855000", "102721.858000", "102721.860000", "102721.863000", "102721.865000", "102721.868000", "102721.870000", "102801.824000", "102801.826000", "102801.829000", "102801.831000", "102801.834000", "102801.836000", "102801.839000", "102801.841000", "102801.844000", "102801.846000", "102801.849000", "102801.851000", "102801.854000", "102801.856000", "102801.858000", "102801.861000", "102801.863000", "102801.866000", "102801.868000", "102801.871000", "102841.823000", "102841.834000", "102841.836000", "102841.839000", "102841.841000", "102841.844000", "102841.846000", "102841.849000", "102841.851000", "102841.854000", "102841.856000", "102841.858000", "102841.861000", "102841.864000", "102841.866000", "102841.869000", "102841.871000", "102841.874000", "102841.876000", "102841.879000", "102921.823000", "102921.826000", "102921.829000", "102921.831000", "102921.833000", "102921.836000", "102921.838000", "102921.841000", "102921.843000", "102921.845000", "102921.848000", "102921.850000", "102921.853000", "102921.855000", "102921.857000", "102921.860000", "102921.862000", "102921.865000", "102921.867000", "102921.870000", "102936.137000", "102936.140000", "102936.142000", "102936.145000", "102936.147000", "102936.150000", "102936.152000", "102936.155000"],
      "InstanceCreationTime": ["102241.829000", "102241.845000", "102241.847000", "102241.850000", "102241.852000", "102241.855000", "102241.857000", "102241.860000", "102241.862000", "102241.865000", "102241.867000", "102241.869000", "102241.872000", "102241.874000", "102241.877000", "102241.879000", "102241.882000", "102241.884000", "102241.886000", "102241.889000", "102241.892000", "102241.894000", "102241.896000", "102241.899000", "102241.901000", "102241.904000", "102241.906000", "102241.909000", "102241.911000", "102321.824000", "102321.827000", "102321.829000", "102321.832000", "102321.834000", "102321.836000", "102321.839000", "102321.841000", "102321.844000", "102321.846000", "102321.856000", "102321.858000", "102321.861000", "102321.863000", "102321.866000", "102321.868000", "102321.870000", "102321.879000", "102321.882000", "102321.884000", "102401.823000", "102401.826000", "102401.829000", "102401.831000", "102401.833000", "102401.836000", "102401.838000", "102401.841000", "102401.843000", "102401.846000", "102401.848000", "102401.865000", "102401.867000", "102401.870000", "102401.872000", "102401.874000", "102401.877000", "102401.879000", "102401.882000", "102401.884000", "102441.824000", "102441.827000", "102441.829000", "102441.832000", "102441.834000", "102441.837000", "102441.839000", "102441.841000", "102441.844000", "102441.846000", "102441.849000", "102441.851000", "102441.854000", "102441.856000", "102441.859000", "102441.861000", "102441.863000", "102441.866000", "102441.868000", "102441.871000", "102521.824000", "102521.827000", "102521.829000", "102521.831000", "102521.844000", "102521.846000", "102521.848000", "102521.851000", "102521.853000", "102521.856000", "102521.858000", "102521.861000", "102521.863000", "102521.865000", "102521.868000", "102521.870000", "102521.873000", "102521.875000", "102521.878000", "102521.880000", "102601.824000", "102601.826000", "102601.829000", "102601.831000", "102601.833000", "102601.836000", "102601.838000", "102601.841000", "102601.843000", "102601.846000", "102601.848000", "102601.850000", "102601.853000", "102601.855000", "102601.858000", "102601.860000", "102601.863000", "102601.865000", "102601.867000", "102601.870000", "102641.823000", "102641.826000", "102641.829000", "102641.831000", "102641.834000", "102641.836000", "102641.838000", "102641.841000", "102641.844000", "102641.846000", "102641.849000", "102641.851000", "102641.853000", "102641.856000", "102641.858000", "102641.861000", "102641.863000", "102641.865000", "102641.868000", "102641.870000", "102721.824000", "102721.826000", "102721.829000", "102721.831000", "102721.833000", "102721.836000", "102721.838000", "102721.841000", "102721.843000", "102721.846000", "102721.848000", "102721.851000", "102721.853000", "102721.855000", "102721.858000", "102721.860000", "102721.863000", "102721.865000", "102721.868000", "102721.870000", "102801.824000", "102801.826000", "102801.829000", "102801.831000", "102801.834000", "102801.836000", "102801.839000", "102801.841000", "102801.844000", "102801.846000", "102801.849000", "102801.851000", "102801.854000", "102801.856000", "102801.858000", "102801.861000", "102801.863000", "102801.866000", "102801.868000", "102801.871000", "102841.823000", "102841.834000", "102841.836000", "102841.839000", "102841.841000", "102841.844000", "102841.846000", "102841.849000", "102841.851000", "102841.854000", "102841.856000", "102841.858000", "102841.861000", "102841.864000", "102841.866000", "102841.869000", "102841.871000", "102841.874000", "102841.876000", "102841.879000", "102921.823000", "102921.826000", "102921.829000", "102921.831000", "102921.833000", "102921.836000", "102921.838000", "102921.841000", "102921.843000", "102921.845000", "102921.848000", "102921.850000", "102921.853000", "102921.855000", "102921.857000", "102921.860000", "102921.862000", "102921.865000", "102921.867000", "102921.870000", "102936.137000", "102936.140000", "102936.142000", "102936.145000", "102936.147000", "102936.150000", "102936.152000", "102936.155000"],
      "InstanceNumber": [1, 2, 3, 4, 5, 6, 7, 8, 9, 10, 11, 12, 13, 14, 15, 16, 17, 18, 19, 20, 21, 22, 23, 24, 25, 26, 27, 28, 29, 30, 31, 32, 33, 34, 35, 36, 37, 38, 39, 40, 41, 42, 43, 44, 45, 46, 47, 48, 49, 50, 51, 52, 53, 54, 55, 56, 57, 58, 59, 60, 61, 62, 63, 64, 65, 66, 67, 68, 69, 70, 71, 72, 73, 74, 75, 76, 77, 78, 79, 80, 81, 82, 83, 84, 85, 86, 87, 88, 89, 90, 91, 92, 93, 94, 95, 96, 97, 98, 99, 100, 101, 102, 103, 104, 105, 106, 107, 108, 109, 110, 111, 112, 113, 114, 115, 116, 117, 118, 119, 120, 121, 122, 123, 124, 125, 126, 127, 128, 129, 130, 131, 132, 133, 134, 135, 136, 137, 138, 139, 140, 141, 142, 143, 144, 145, 146, 147, 148, 149, 150, 151, 152, 153, 154, 155, 156, 157, 158, 159, 160, 161, 162, 163, 164, 165, 166, 167, 168, 169, 170, 171, 172, 173, 174, 175, 176, 177, 178, 179, 180, 181, 182, 183, 184, 185, 186, 187, 188, 189, 190, 191, 192, 193, 194, 195, 196, 197, 198, 199, 200, 201, 202, 203, 204, 205, 206, 207, 208, 209, 210, 211, 212, 213, 214, 215, 216, 217, 218, 219, 220, 221, 222, 223, 224, 225, 226, 227, 228, 229, 230, 231, 232, 233, 234, 235, 236, 237],
      "LargestImagePixelValue": [2976, 2169, 1737, 1931, 2762, 1887, 1770, 2271, 1736, 2053, 1836, 2001, 1709, 2622, 1709, 2079, 1718, 2103, 1721, 2158, 1779, 2438, 1725, 1828, 1693, 1997, 3041, 1737, 2225, 1901, 2000, 1905, 2247, 2480, 1786, 2263, 1726, 2003, 1763, 3030, 1744, 2130, 1864, 1877, 1748, 1897, 2485, 1765, 1969, 1747, 2685, 1830, 2273, 1779, 1914, 1821, 1773, 1766, 2618, 1829, 1893, 2145, 1833, 1867, 1835, 2546, 2308, 1878, 2119, 1758, 2683, 2026, 1724, 2028, 2095, 2058, 1751, 1943, 1745, 2037, 1734, 2018, 2858, 2269, 1722, 2083, 1946, 1928, 1853, 1917, 2111, 1864, 2023, 2282, 1873, 3196, 2535, 1732, 1805, 1710, 2042, 1848, 1817, 2035, 1794, 2956, 1973, 2645, 1730, 1846, 1741, 1718, 2002, 1706, 1850, 2133, 1873, 1767, 2584, 1724, 1963, 2085, 1870, 2351, 3240, 1950, 1922, 1833, 2415, 1908, 1727, 1927, 1718, 1900, 1723, 1732, 3118, 2699, 1806, 2030, 1701, 2912, 1872, 2733, 1900, 1942, 1903, 1738, 2203, 1753, 1972, 1812, 1843, 1730, 2001, 2019, 1843, 1972, 1959, 1908, 2408, 1755, 2171, 2958, 1743, 2461, 1845, 2132, 1717, 2097, 1710, 1783, 1729, 2062, 1915, 1760, 2030, 2309, 2094, 2386, 1983, 2800, 1754, 1753, 2171, 2726, 1736, 1952, 2291, 1897, 1770, 1777, 2235, 2382, 2569, 2122, 1793, 2143, 1838, 1848, 1859, 2149, 1790, 2082, 1725, 2222, 2188, 2951, 1792, 1961, 1805, 1773, 1876, 2183, 1776, 1753, 2097, 2347, 1856, 2028, 1871, 1946, 2309, 2494, 1758, 1724, 2045, 2735, 1792, 2462, 1724, 1836, 1887, 1861, 1821, 1838, 2022],
      "WindowCenter": [685.0, 684.0, 683.0, 684.0, 684.0, 682.0, 682.0, 684.0, 682.0, 682.0, 682.0, 682.0, 682.0, 684.0, 682.0, 683.0, 682.0, 683.0, 681.0, 683.0, 682.0, 683.0, 681.0, 683.0, 682.0, 683.0, 684.0, 682.0, 684.0, 682.0, 683.0, 682.0, 683.0, 683.0, 682.0, 683.0, 682.0, 683.0, 683.0, 684.0, 681.0, 682.0, 682.0, 683.0, 682.0, 683.0, 684.0, 681.0, 683.0, 682.0, 684.0, 682.0, 683.0, 682.0, 682.0, 683.0, 683.0, 683.0, 684.0, 682.0, 682.0, 684.0, 682.0, 683.0, 683.0, 683.0, 683.0, 681.0, 683.0, 683.0, 684.0, 682.0, 681.0, 682.0, 682.0, 683.0, 682.0, 684.0, 682.0, 682.0, 682.0, 683.0, 684.0, 683.0, 681.0, 682.0, 682.0, 683.0, 683.0, 683.0, 684.0, 683.0, 683.0, 684.0, 683.0, 685.0, 683.0, 681.0, 683.0, 682.0, 684.0, 683.0, 683.0, 684.0, 682.0, 684.0, 682.0, 683.0, 681.0, 682.0, 682.0, 682.0, 683.0, 682.0, 682.0, 683.0, 682.0, 682.0, 684.0, 682.0, 682.0, 683.0, 682.0, 683.0, 684.0, 682.0, 682.0, 683.0, 683.0, 682.0, 682.0, 684.0, 683.0, 683.0, 683.0, 682.0, 684.0, 683.0, 682.0, 683.0, 682.0, 684.0, 682.0, 684.0, 682.0, 683.0, 683.0, 682.0, 683.0, 682.0, 682.0, 682.0, 683.0, 682.0, 682.0, 683.0, 683.0, 683.0, 683.0, 683.0, 684.0, 682.0, 683.0, 683.0, 681.0, 683.0, 682.0, 683.0, 681.0, 683.0, 681.0, 682.0, 682.0, 682.0, 683.0, 683.0, 684.0, 684.0, 684.0, 683.0, 682.0, 684.0, 683.0, 683.0, 684.0, 683.0, 682.0, 682.0, 683.0, 682.0, 682.0, 683.0, 683.0, 683.0, 683.0, 682.0, 681.0, 682.0, 682.0, 682.0, 682.0, 683.0, 682.0, 683.0, 682.0, 683.0, 683.0, 685.0, 681.0, 683.0, 683.0, 683.0, 683.0, 684.0, 682.0, 682.0, 683.0, 683.0, 682.0, 683.0, 683.0, 683.0, 683.0, 683.0, 681.0, 682.0, 683.0, 683.0, 682.0, 683.0, 683.0, 682.0, 682.0, 682.0, 683.0, 683.0, 683.0],
      "WindowWidth": [1532.0, 1528.0, 1525.0, 1527.0, 1529.0, 1522.0, 1522.0, 1529.0, 1522.0, 1524.0, 1522.0, 1524.0, 1522.0, 1529.0, 1521.0, 1525.0, 1522.0, 1526.0, 1520.0, 1526.0, 1521.0, 1527.0, 1519.0, 1525.0, 1523.0, 1525.0, 1531.0, 1523.0, 1528.0, 1524.0, 1524.0, 1523.0, 1526.0, 1527.0, 1521.0, 1526.0, 1522.0, 1525.0, 1524.0, 1530.0, 1520.0, 1524.0, 1523.0, 1525.0, 1524.0, 1525.0, 1531.0, 1521.0, 1526.0, 1521.0, 1530.0, 1522.0, 1525.0, 1523.0, 1524.0, 1524.0, 1525.0, 1525.0, 1530.0, 1523.0, 1523.0, 1528.0, 1522.0, 1525.0, 1526.0, 1528.0, 1526.0, 1520.0, 1527.0, 1524.0, 1529.0, 1523.0, 1520.0, 1524.0, 1523.0, 1527.0, 1523.0, 1527.0, 1523.0, 1524.0, 1522.0, 1526.0, 1531.0, 1526.0, 1520.0, 1523.0, 1523.0, 1524.0, 1525.0, 1526.0, 1529.0, 1524.0, 1526.0, 1529.0, 1524.0, 1533.0, 1527.0, 1519.0, 1524.0, 1522.0, 1527.0, 1524.0, 1525.0, 1529.0, 1524.0, 1530.0, 1525.0, 1528.0, 1519.0, 1522.0, 1522.0, 1523.0, 1526.0, 1523.0, 1524.0, 1526.0, 1523.0, 1523.0, 1529.0, 1522.0, 1523.0, 1527.0, 1523.0, 1527.0, 1530.0, 1523.0, 1524.0, 1524.0, 1528.0, 1522.0, 1524.0, 1528.0, 1526.0, 1526.0, 1525.0, 1524.0, 1532.0, 1527.0, 1522.0, 1528.0, 1523.0, 1531.0, 1522.0, 1529.0, 1524.0, 1523.0, 1524.0, 1521.0, 1526.0, 1521.0, 1523.0, 1523.0, 1526.0, 1522.0, 1523.0, 1525.0, 1524.0, 1528.0, 1527.0, 1525.0, 1528.0, 1522.0, 1525.0, 1528.0, 1520.0, 1527.0, 1523.0, 1525.0, 1520.0, 1526.0, 1520.0, 1523.0, 1523.0, 1524.0, 1524.0, 1524.0, 1529.0, 1531.0, 1529.0, 1528.0, 1524.0, 1529.0, 1524.0, 1525.0, 1528.0, 1528.0, 1521.0, 1522.0, 1526.0, 1522.0, 1523.0, 1524.0, 1525.0, 1525.0, 1525.0, 1523.0, 1518.0, 1523.0, 1522.0, 1523.0, 1523.0, 1526.0, 1523.0, 1527.0, 1523.0, 1527.0, 1527.0, 1533.0, 1519.0, 1525.0, 1524.0, 1524.0, 1525.0, 1528.0, 1522.0, 1521.0, 1525.0, 1526.0, 1523.0, 1526.0, 1525.0, 1525.0, 1527.0, 1527.0, 1520.0, 1522.0, 1525.0, 1528.0, 1521.0, 1528.0, 1523.0, 1522.0, 1523.0, 1524.0, 1525.0, 1524.0, 1526.0]
    },
    "slices": {}
  }
}