{
  "AcquisitionMatrixPE": 70,
  "AcquisitionNumber": 1,
  "AcquisitionTime": "11:52:8.960000",
  "BandwidthPerPixelPhaseEncode": 38.873,
  "BaseResolution": 70,
  "BodyPartExamined": "HEAD",
  "ConsistencyInfo": "N4_VE11B_LATEST_20150530",
  "ConversionSoftware": "dcm2niix",
  "ConversionSoftwareVersion": "v1.0.20190410  GCC6.3.0",
  "DerivedVendorReportedEchoSpacing": 0.000489996,
  "DeviceSerialNumber": "66088",
  "DwellTime": 2.9e-06,
  "EchoTime": 0.03,
  "EchoTrainLength": 53,
  "EffectiveEchoSpacing": 0.000367497,
  "FlipAngle": 90,
  "ImageOrientationPatientDICOM": [0.998134, 0.057164, -0.0214602, -0.0610485, 0.940964, -0.332957],
  "ImageType": [
    "ORIGINAL",
    "PRIMARY",
    "M",
    "ND",
    "NORM",
    "MOSAIC"
],
  "ImagingFrequency": 123.191,
  "InPlanePhaseEncodingDirectionDICOM": "COL",
  "InstitutionAddress": "Street_StreetNo_City_District_IR_ZIP",
  "InstitutionName": "NBML",
  "InstitutionalDepartmentName": "Department",
  "MRAcquisitionType": "2D",
  "MagneticFieldStrength": 3,
  "Manufacturer": "Siemens",
  "ManufacturersModelName": "Prisma",
  "Modality": "MR",
  "ParallelReductionFactorInPlane": 2,
  "PartialFourier": 1,
  "PatientPosition": "HFS",
  "PercentPhaseFOV": 100,
  "PhaseEncodingDirection": "j-",
  "PhaseEncodingSteps": 105,
  "PhaseOversampling": 0.5,
  "PhaseResolution": 1,
  "PixelBandwidth": 2465,
  "ProcedureStepDescription": "NBML_Project_P-96169-Ebrahiminiya",
  "ProtocolName": "ep2d_p2_Task_3.5_measurment:237",
  "PulseSequenceDetails": "%SiemensSeq%_ep2d_pace",
  "ReceiveCoilActiveElements": "HC1-7;NC1",
  "ReceiveCoilName": "HeadNeck_64",
  "ReconMatrixPE": 70,
  "RefLinesPE": 24,
  "RepetitionTime": 2,
  "SAR": 0.08849,
  "ScanOptions": "FS",
  "ScanningSequence": "EP",
  "SequenceName": "_epfid2d1_70",
  "SequenceVariant": "SK_OSP",
  "SeriesDescription": "ep2d_p2_Task_3.5_measurment:237",
  "SeriesNumber": 12,
  "ShimSetting": [2598, -4470, -3284, 444, -97, 37, -76, 33],
  "SliceThickness": 3.5,
  "SliceTiming": [0.99, 0, 1.05, 0.06, 1.1075, 0.1175, 1.165, 0.175, 1.2225, 0.2325, 1.2825, 0.2925, 1.34, 0.35, 1.3975, 0.4075, 1.4575, 0.4675, 1.515, 0.525, 1.5725, 0.5825, 1.63, 0.64, 1.69, 0.7, 1.7475, 0.7575, 1.805, 0.815, 1.865, 0.875, 1.9225, 0.9325],
  "SoftwareVersions": "syngo_MR_E11",
  "SpacingBetweenSlices": 3.85,
  "StationName": "AWP66088",
  "TaskName": "categorySelectivity",
  "TotalReadoutTime": 0.0253573,
  "TxRefAmp": 231.396,
  "dcmmeta_affine": [
    [-3.5362465381622314, -0.21628601849079132, -0.0044664074666798115, 127.79583740234375],
    [-0.20252390205860138, 3.333700656890869, -1.2845348119735718, -83.37696075439453],
    [-0.07603028416633606, 1.1796175241470337, 3.629387140274048, -84.56420135498047],
    [0.0, 0.0, 0.0, 1.0]
],
  "dcmmeta_reorient_transform": [
    [0.0, -1.0, 0.0, 69.0],
    [1.0, 0.0, 0.0, 0.0],
    [0.0, 0.0, 1.0, 0.0],
    [0.0, 0.0, 0.0, 1.0]
],
  "dcmmeta_shape": [70, 70, 34, 237],
  "dcmmeta_slice_dim": 2,
  "dcmmeta_version": 0.6,
  "global": {
    "const": {
      "AccessionNumber": "M.BRZ",
      "AcquisitionMatrix": [70, 0, 0, 70],
      "AngioFlag": "N",
      "BitsAllocated": 16,
      "BitsStored": 12,
      "BodyPartExamined": "HEAD",
      "Columns": 420,
      "EchoNumbers": 1,
      "EchoTime": 30.0,
      "EchoTrainLength": 53,
      "FlipAngle": 90.0,
      "HighBit": 11,
      "ImageOrientationPatient": [0.99813412827306, 0.05716400511919, -0.0214601606545, -0.0610484736181, 0.94096387659193, -0.3329565539496],
      "ImagePositionPatient": [-693.86520912135, -765.4876714787, 216.56777063414],
      "ImageType": [
        "ORIGINAL",
        "PRIMARY",
        "M",
        "ND",
        "NORM",
        "MOSAIC"
],
      "ImagedNucleus": "1H",
      "ImagingFrequency": 123.191155,
      "InPlanePhaseEncodingDirection": "COL",
      "MRAcquisitionType": "2D",
      "MagneticFieldStrength": 3.0,
      "Manufacturer": "SIEMENS",
      "ManufacturerModelName": "Prisma",
      "Modality": "MR",
      "NumberOfAverages": 1.0,
      "NumberOfPhaseEncodingSteps": 105,
      "PercentPhaseFieldOfView": 100.0,
      "PercentSampling": 100.0,
      "PerformedProcedureStepStartTime": "100253.755000",
      "PhotometricInterpretation": "MONOCHROME2",
      "PixelBandwidth": 2465.0,
      "PixelRepresentation": 0,
      "PixelSpacing": [3.542857170105, 3.542857170105],
      "ProtocolName": "ep2d_p2_Task_3.5_measurment:237",
      "RepetitionTime": 2000.0,
      "Rows": 420,
      "SAR": 0.08848998825083,
      "SamplesPerPixel": 1,
      "ScanOptions": "FS",
      "ScanningSequence": "EP",
      "SequenceName": "*epfid2d1_70",
      "SequenceVariant": [
        "SK",
        "OSP"
],
      "SeriesDescription": "ep2d_p2_Task_3.5_measurment:237",
      "SeriesNumber": 12,
      "SeriesTime": "115253.681000",
      "SliceLocation": -52.048414952838,
      "SliceThickness": 3.5,
      "SmallestImagePixelValue": 0,
      "SoftwareVersions": "syngo MR E11",
      "SpacingBetweenSlices": 3.8499999837452,
      "SpecificCharacterSet": "ISO_IR 100",
      "StudyID": "1",
      "StudyTime": "100253.679000",
      "TransmitCoilName": "Body",
      "VariableFlipAngleFlag": "N",
      "WindowCenterWidthExplanation": "Algo1",
      "dBdt": 0.0},
    "slices": {}
  },
  "time": {
    "samples": {
      "AcquisitionNumber": [1, 2, 3, 4, 5, 6, 7, 8, 9, 10, 11, 12, 13, 14, 15, 16, 17, 18, 19, 20, 21, 22, 23, 24, 25, 26, 27, 28, 29, 30, 31, 32, 33, 34, 35, 36, 37, 38, 39, 40, 41, 42, 43, 44, 45, 46, 47, 48, 49, 50, 51, 52, 53, 54, 55, 56, 57, 58, 59, 60, 61, 62, 63, 64, 65, 66, 67, 68, 69, 70, 71, 72, 73, 74, 75, 76, 77, 78, 79, 80, 81, 82, 83, 84, 85, 86, 87, 88, 89, 90, 91, 92, 93, 94, 95, 96, 97, 98, 99, 100, 101, 102, 103, 104, 105, 106, 107, 108, 109, 110, 111, 112, 113, 114, 115, 116, 117, 118, 119, 120, 121, 122, 123, 124, 125, 126, 127, 128, 129, 130, 131, 132, 133, 134, 135, 136, 137, 138, 139, 140, 141, 142, 143, 144, 145, 146, 147, 148, 149, 150, 151, 152, 153, 154, 155, 156, 157, 158, 159, 160, 161, 162, 163, 164, 165, 166, 167, 168, 169, 170, 171, 172, 173, 174, 175, 176, 177, 178, 179, 180, 181, 182, 183, 184, 185, 186, 187, 188, 189, 190, 191, 192, 193, 194, 195, 196, 197, 198, 199, 200, 201, 202, 203, 204, 205, 206, 207, 208, 209, 210, 211, 212, 213, 214, 215, 216, 217, 218, 219, 220, 221, 222, 223, 224, 225, 226, 227, 228, 229, 230, 231, 232, 233, 234, 235, 236, 237],
      "AcquisitionTime": ["115208.960000", "115210.960000", "115212.960000", "115214.960000", "115216.960000", "115218.960000", "115220.960000", "115222.960000", "115224.960000", "115226.960000", "115228.960000", "115230.960000", "115232.960000", "115234.960000", "115236.960000", "115238.960000", "115240.960000", "115242.960000", "115244.960000", "115246.960000", "115248.960000", "115250.960000", "115252.960000", "115254.960000", "115256.960000", "115258.960000", "115300.960000", "115302.960000", "115304.960000", "115306.960000", "115308.960000", "115310.960000", "115312.960000", "115314.960000", "115316.960000", "115318.960000", "115320.960000", "115322.960000", "115324.960000", "115326.960000", "115328.960000", "115330.960000", "115332.960000", "115334.960000", "115336.960000", "115338.960000", "115340.960000", "115342.960000", "115344.960000", "115346.960000", "115348.960000", "115350.960000", "115352.960000", "115354.960000", "115356.960000", "115358.960000", "115400.960000", "115402.960000", "115404.960000", "115406.960000", "115408.960000", "115410.960000", "115412.960000", "115414.960000", "115416.960000", "115418.960000", "115420.960000", "115422.960000", "115424.960000", "115426.960000", "115428.960000", "115430.960000", "115432.960000", "115434.960000", "115436.960000", "115438.960000", "115440.960000", "115442.960000", "115444.960000", "115446.960000", "115448.960000", "115450.960000", "115452.960000", "115454.960000", "115456.960000", "115458.960000", "115500.960000", "115502.960000", "115504.960000", "115506.960000", "115508.960000", "115510.960000", "115512.960000", "115514.960000", "115516.960000", "115518.960000", "115520.960000", "115522.960000", "115524.960000", "115526.960000", "115528.960000", "115530.960000", "115532.960000", "115534.960000", "115536.960000", "115538.960000", "115540.960000", "115542.960000", "115544.960000", "115546.960000", "115548.960000", "115550.960000", "115552.960000", "115554.960000", "115556.960000", "115558.960000", "115600.960000", "115602.960000", "115604.960000", "115606.960000", "115608.960000", "115610.960000", "115612.960000", "115614.960000", "115616.960000", "115618.960000", "115620.960000", "115622.960000", "115624.960000", "115626.960000", "115628.960000", "115630.960000", "115632.960000", "115634.960000", "115636.960000", "115638.960000", "115640.960000", "115642.960000", "115644.960000", "115646.960000", "115648.960000", "115650.960000", "115652.960000", "115654.960000", "115656.960000", "115658.960000", "115700.960000", "115702.960000", "115704.960000", "115706.960000", "115708.960000", "115710.960000", "115712.960000", "115714.960000", "115716.960000", "115718.960000", "115720.960000", "115722.960000", "115724.960000", "115726.960000", "115728.960000", "115730.960000", "115732.960000", "115734.960000", "115736.960000", "115738.960000", "115740.960000", "115742.960000", "115744.960000", "115746.960000", "115748.960000", "115750.960000", "115752.960000", "115754.960000", "115756.960000", "115758.960000", "115800.960000", "115802.960000", "115804.960000", "115806.960000", "115808.960000", "115810.960000", "115812.960000", "115814.960000", "115816.960000", "115818.960000", "115820.960000", "115822.960000", "115824.960000", "115826.960000", "115828.960000", "115830.960000", "115832.960000", "115834.960000", "115836.960000", "115838.960000", "115840.960000", "115842.960000", "115844.960000", "115846.960000", "115848.960000", "115850.960000", "115852.960000", "115854.960000", "115856.960000", "115858.960000", "115900.960000", "115902.960000", "115904.960000", "115906.960000", "115908.960000", "115910.960000", "115912.960000", "115914.960000", "115916.960000", "115918.960000", "115920.960000", "115922.960000", "115924.960000", "115926.960000", "115928.960000", "115930.960000", "115932.960000", "115934.960000", "115936.960000", "115938.960000", "115940.960000", "115942.960000", "115944.960000", "115946.960000", "115948.960000", "115950.960000", "115952.960000", "115954.960000", "115956.960000", "115958.960000", "120000.960000"],
      "ContentTime": ["115253.687000", "115253.691000", "115253.694000", "115253.696000", "115253.699000", "115253.701000", "115253.704000", "115253.706000", "115253.708000", "115253.711000", "115253.713000", "115253.716000", "115253.718000", "115253.721000", "115253.723000", "115253.725000", "115253.728000", "115253.730000", "115253.732000", "115253.735000", "115253.738000", "115253.750000", "115333.677000", "115333.680000", "115333.682000", "115333.685000", "115333.687000", "115333.690000", "115333.692000", "115333.694000", "115333.697000", "115333.699000", "115333.702000", "115333.704000", "115333.713000", "115333.715000", "115333.718000", "115333.720000", "115333.723000", "115333.725000", "115333.728000", "115333.730000", "115413.678000", "115413.680000", "115413.683000", "115413.685000", "115413.688000", "115413.690000", "115413.692000", "115413.695000", "115413.697000", "115413.700000", "115413.702000", "115413.705000", "115413.707000", "115413.709000", "115413.713000", "115413.716000", "115413.718000", "115413.721000", "115413.723000", "115413.726000", "115453.678000", "115453.681000", "115453.683000", "115453.686000", "115453.688000", "115453.691000", "115453.693000", "115453.695000", "115453.698000", "115453.700000", "115453.702000", "115453.705000", "115453.707000", "115453.710000", "115453.712000", "115453.715000", "115453.717000", "115453.720000", "115453.722000", "115453.725000", "115533.678000", "115533.681000", "115533.684000", "115533.686000", "115533.688000", "115533.691000", "115533.693000", "115533.696000", "115533.698000", "115533.700000", "115533.703000", "115533.705000", "115533.708000", "115533.710000", "115533.712000", "115533.715000", "115533.717000", "115533.720000", "115533.722000", "115533.730000", "115613.677000", "115613.680000", "115613.683000", "115613.685000", "115613.688000", "115613.690000", "115613.692000", "115613.695000", "115613.697000", "115613.700000", "115613.702000", "115613.704000", "115613.707000", "115613.709000", "115613.712000", "115613.714000", "115613.717000", "115613.719000", "115613.722000", "115613.724000", "115653.678000", "115653.688000", "115653.691000", "115653.694000", "115653.696000", "115653.699000", "115653.702000", "115653.704000", "115653.707000", "115653.709000", "115653.720000", "115653.723000", "115653.725000", "115653.727000", "115653.730000", "115653.733000", "115653.735000", "115653.737000", "115653.740000", "115653.742000", "115733.678000", "115733.681000", "115733.684000", "115733.687000", "115733.689000", "115733.692000", "115733.695000", "115733.703000", "115733.706000", "115733.709000", "115733.711000", "115733.714000", "115733.717000", "115733.720000", "115733.722000", "115733.725000", "115733.728000", "115733.730000", "115733.733000", "115733.735000", "115813.677000", "115813.680000", "115813.682000", "115813.685000", "115813.687000", "115813.690000", "115813.692000", "115813.694000", "115813.697000", "115813.699000", "115813.702000", "115813.704000", "115813.706000", "115813.709000", "115813.724000", "115813.727000", "115813.729000", "115813.732000", "115813.734000", "115813.736000", "115853.678000", "115853.681000", "115853.683000", "115853.686000", "115853.688000", "115853.691000", "115853.693000", "115853.696000", "115853.698000", "115853.700000", "115853.703000", "115853.705000", "115853.708000", "115853.710000", "115853.713000", "115853.715000", "115853.718000", "115853.720000", "115853.723000", "115853.725000", "115933.677000", "115933.680000", "115933.683000", "115933.685000", "115933.688000", "115933.690000", "115933.693000", "115933.695000", "115933.697000", "115933.700000", "115933.702000", "115933.705000", "115933.707000", "115933.710000", "115933.712000", "115933.715000", "115933.717000", "115933.720000", "115933.722000", "115933.725000", "120002.040000", "120002.044000", "120002.047000", "120002.050000", "120002.053000", "120002.056000", "120002.058000", "120002.061000", "120002.063000", "120002.066000", "120002.069000", "120002.071000", "120002.074000", "120002.076000", "120002.079000"],
      "InstanceCreationTime": ["115253.687000", "115253.691000", "115253.694000", "115253.696000", "115253.699000", "115253.701000", "115253.704000", "115253.706000", "115253.708000", "115253.711000", "115253.713000", "115253.716000", "115253.718000", "115253.721000", "115253.723000", "115253.725000", "115253.728000", "115253.730000", "115253.732000", "115253.735000", "115253.738000", "115253.750000", "115333.677000", "115333.680000", "115333.682000", "115333.685000", "115333.687000", "115333.690000", "115333.692000", "115333.694000", "115333.697000", "115333.699000", "115333.702000", "115333.704000", "115333.713000", "115333.715000", "115333.718000", "115333.720000", "115333.723000", "115333.725000", "115333.728000", "115333.730000", "115413.678000", "115413.680000", "115413.683000", "115413.685000", "115413.688000", "115413.690000", "115413.692000", "115413.695000", "115413.697000", "115413.700000", "115413.702000", "115413.705000", "115413.707000", "115413.709000", "115413.713000", "115413.716000", "115413.718000", "115413.721000", "115413.723000", "115413.726000", "115453.678000", "115453.681000", "115453.683000", "115453.686000", "115453.688000", "115453.691000", "115453.693000", "115453.695000", "115453.698000", "115453.700000", "115453.702000", "115453.705000", "115453.707000", "115453.710000", "115453.712000", "115453.715000", "115453.717000", "115453.720000", "115453.722000", "115453.725000", "115533.678000", "115533.681000", "115533.684000", "115533.686000", "115533.688000", "115533.691000", "115533.693000", "115533.696000", "115533.698000", "115533.700000", "115533.703000", "115533.705000", "115533.708000", "115533.710000", "115533.712000", "115533.715000", "115533.717000", "115533.720000", "115533.722000", "115533.730000", "115613.677000", "115613.680000", "115613.683000", "115613.685000", "115613.688000", "115613.690000", "115613.692000", "115613.695000", "115613.697000", "115613.700000", "115613.702000", "115613.704000", "115613.707000", "115613.709000", "115613.712000", "115613.714000", "115613.717000", "115613.719000", "115613.722000", "115613.724000", "115653.678000", "115653.688000", "115653.691000", "115653.694000", "115653.696000", "115653.699000", "115653.702000", "115653.704000", "115653.707000", "115653.709000", "115653.720000", "115653.723000", "115653.725000", "115653.727000", "115653.730000", "115653.733000", "115653.735000", "115653.737000", "115653.740000", "115653.742000", "115733.678000", "115733.681000", "115733.684000", "115733.687000", "115733.689000", "115733.692000", "115733.695000", "115733.703000", "115733.706000", "115733.709000", "115733.711000", "115733.714000", "115733.717000", "115733.720000", "115733.722000", "115733.725000", "115733.728000", "115733.730000", "115733.733000", "115733.735000", "115813.677000", "115813.680000", "115813.682000", "115813.685000", "115813.687000", "115813.690000", "115813.692000", "115813.694000", "115813.697000", "115813.699000", "115813.702000", "115813.704000", "115813.706000", "115813.709000", "115813.724000", "115813.727000", "115813.729000", "115813.732000", "115813.734000", "115813.736000", "115853.678000", "115853.681000", "115853.683000", "115853.686000", "115853.688000", "115853.691000", "115853.693000", "115853.696000", "115853.698000", "115853.700000", "115853.703000", "115853.705000", "115853.708000", "115853.710000", "115853.713000", "115853.715000", "115853.718000", "115853.720000", "115853.723000", "115853.725000", "115933.677000", "115933.680000", "115933.683000", "115933.685000", "115933.688000", "115933.690000", "115933.693000", "115933.695000", "115933.697000", "115933.700000", "115933.702000", "115933.705000", "115933.707000", "115933.710000", "115933.712000", "115933.715000", "115933.717000", "115933.720000", "115933.722000", "115933.725000", "120002.040000", "120002.044000", "120002.047000", "120002.050000", "120002.053000", "120002.056000", "120002.058000", "120002.061000", "120002.063000", "120002.066000", "120002.069000", "120002.071000", "120002.074000", "120002.076000", "120002.079000"],
      "InstanceNumber": [1, 2, 3, 4, 5, 6, 7, 8, 9, 10, 11, 12, 13, 14, 15, 16, 17, 18, 19, 20, 21, 22, 23, 24, 25, 26, 27, 28, 29, 30, 31, 32, 33, 34, 35, 36, 37, 38, 39, 40, 41, 42, 43, 44, 45, 46, 47, 48, 49, 50, 51, 52, 53, 54, 55, 56, 57, 58, 59, 60, 61, 62, 63, 64, 65, 66, 67, 68, 69, 70, 71, 72, 73, 74, 75, 76, 77, 78, 79, 80, 81, 82, 83, 84, 85, 86, 87, 88, 89, 90, 91, 92, 93, 94, 95, 96, 97, 98, 99, 100, 101, 102, 103, 104, 105, 106, 107, 108, 109, 110, 111, 112, 113, 114, 115, 116, 117, 118, 119, 120, 121, 122, 123, 124, 125, 126, 127, 128, 129, 130, 131, 132, 133, 134, 135, 136, 137, 138, 139, 140, 141, 142, 143, 144, 145, 146, 147, 148, 149, 150, 151, 152, 153, 154, 155, 156, 157, 158, 159, 160, 161, 162, 163, 164, 165, 166, 167, 168, 169, 170, 171, 172, 173, 174, 175, 176, 177, 178, 179, 180, 181, 182, 183, 184, 185, 186, 187, 188, 189, 190, 191, 192, 193, 194, 195, 196, 197, 198, 199, 200, 201, 202, 203, 204, 205, 206, 207, 208, 209, 210, 211, 212, 213, 214, 215, 216, 217, 218, 219, 220, 221, 222, 223, 224, 225, 226, 227, 228, 229, 230, 231, 232, 233, 234, 235, 236, 237],
      "LargestImagePixelValue": [2488, 2012, 1750, 1759, 1747, 2107, 2260, 1907, 2002, 1642, 2318, 1517, 2238, 2000, 2333, 1675, 1805, 1574, 1910, 1556, 2318, 1630, 2382, 1638, 1783, 1848, 1562, 2164, 1516, 2020, 1597, 2518, 1713, 1595, 1508, 1689, 2594, 1693, 1858, 1753, 2061, 1544, 1830, 1670, 1629, 2093, 1496, 2140, 1779, 1974, 1545, 1996, 1831, 2214, 1885, 1650, 1496, 1494, 1750, 2334, 1772, 2348, 1787, 1875, 1529, 1986, 1489, 1747, 1589, 2086, 1529, 1651, 1784, 1863, 1924, 1630, 2075, 1718, 2366, 1567, 1578, 1634, 1548, 1991, 1671, 1729, 1907, 1930, 1794, 2194, 1574, 1881, 1651, 2465, 1751, 1477, 1476, 1516, 2323, 1705, 2085, 1835, 1681, 1568, 2430, 1490, 1729, 1560, 1516, 1611, 2313, 1870, 1502, 1506, 1861, 2443, 1665, 2105, 1499, 1520, 1508, 2456, 1697, 1696, 1588, 1740, 2354, 1496, 2247, 1616, 1571, 1504, 1535, 1585, 1836, 1591, 2440, 1842, 2418, 1511, 1515, 1747, 1849, 2244, 1680, 1748, 1565, 1627, 1522, 1591, 1741, 1903, 1795, 1620, 1857, 2583, 1515, 1518, 1985, 1631, 1524, 2230, 1996, 2465, 1587, 1517, 1514, 1973, 1757, 1602, 1568, 1560, 1598, 1580, 1525, 1868, 1705, 1745, 1989, 1982, 1522, 1795, 1642, 1993, 1549, 1710, 1529, 1519, 1540, 2446, 1722, 1618, 1833, 1532, 2113, 2126, 2540, 1684, 1667, 1556, 1689, 1534, 1550, 1682, 1592, 1670, 2081, 1538, 1594, 1776, 1536, 1569, 1964, 1550, 1531, 1529, 1958, 2551, 1593, 1574, 1536, 1677, 1539, 1706, 1530, 2201, 1545, 1670, 1724, 1529, 1602, 1561, 1643, 2383, 2058, 2112, 1619],
      "WindowCenter": [659.0, 658.0, 658.0, 658.0, 657.0, 658.0, 659.0, 657.0, 657.0, 656.0, 658.0, 655.0, 658.0, 657.0, 657.0, 656.0, 657.0, 656.0, 657.0, 656.0, 658.0, 656.0, 658.0, 655.0, 656.0, 657.0, 656.0, 657.0, 655.0, 657.0, 656.0, 657.0, 656.0, 655.0, 656.0, 656.0, 658.0, 656.0, 657.0, 656.0, 656.0, 655.0, 657.0, 657.0, 655.0, 658.0, 655.0, 657.0, 656.0, 657.0, 656.0, 658.0, 657.0, 657.0, 656.0, 656.0, 655.0, 657.0, 657.0, 658.0, 656.0, 658.0, 656.0, 656.0, 655.0, 657.0, 655.0, 657.0, 656.0, 657.0, 655.0, 656.0, 657.0, 657.0, 657.0, 656.0, 657.0, 655.0, 658.0, 655.0, 656.0, 656.0, 656.0, 658.0, 656.0, 656.0, 657.0, 657.0, 657.0, 657.0, 655.0, 657.0, 656.0, 658.0, 656.0, 656.0, 656.0, 656.0, 658.0, 656.0, 657.0, 655.0, 655.0, 654.0, 658.0, 654.0, 655.0, 654.0, 655.0, 656.0, 657.0, 655.0, 654.0, 656.0, 657.0, 658.0, 656.0, 657.0, 653.0, 655.0, 656.0, 658.0, 655.0, 655.0, 655.0, 654.0, 658.0, 655.0, 657.0, 654.0, 654.0, 654.0, 655.0, 655.0, 656.0, 656.0, 658.0, 656.0, 657.0, 654.0, 655.0, 657.0, 656.0, 656.0, 656.0, 655.0, 654.0, 655.0, 654.0, 656.0, 656.0, 656.0, 655.0, 655.0, 655.0, 656.0, 654.0, 656.0, 657.0, 655.0, 655.0, 659.0, 657.0, 657.0, 655.0, 655.0, 655.0, 656.0, 655.0, 655.0, 655.0, 655.0, 654.0, 654.0, 655.0, 656.0, 655.0, 655.0, 657.0, 655.0, 654.0, 656.0, 655.0, 656.0, 654.0, 654.0, 654.0, 654.0, 656.0, 658.0, 655.0, 655.0, 656.0, 655.0, 657.0, 657.0, 656.0, 654.0, 656.0, 655.0, 655.0, 654.0, 654.0, 655.0, 654.0, 654.0, 656.0, 655.0, 655.0, 655.0, 654.0, 654.0, 656.0, 653.0, 654.0, 655.0, 656.0, 657.0, 653.0, 654.0, 654.0, 654.0, 653.0, 655.0, 654.0, 656.0, 654.0, 656.0, 656.0, 654.0, 655.0, 655.0, 655.0, 657.0, 656.0, 656.0, 654.0],
      "WindowWidth": [1445.0, 1439.0, 1439.0, 1439.0, 1439.0, 1439.0, 1443.0, 1438.0, 1438.0, 1433.0, 1441.0, 1433.0, 1440.0, 1438.0, 1439.0, 1434.0, 1436.0, 1434.0, 1437.0, 1435.0, 1441.0, 1436.0, 1439.0, 1432.0, 1435.0, 1438.0, 1435.0, 1437.0, 1432.0, 1438.0, 1434.0, 1439.0, 1435.0, 1433.0, 1434.0, 1435.0, 1441.0, 1434.0, 1438.0, 1435.0, 1435.0, 1431.0, 1436.0, 1436.0, 1433.0, 1439.0, 1432.0, 1439.0, 1435.0, 1437.0, 1433.0, 1439.0, 1438.0, 1439.0, 1435.0, 1435.0, 1433.0, 1436.0, 1437.0, 1441.0, 1435.0, 1440.0, 1435.0, 1436.0, 1432.0, 1437.0, 1431.0, 1436.0, 1435.0, 1437.0, 1432.0, 1434.0, 1437.0, 1436.0, 1436.0, 1434.0, 1438.0, 1433.0, 1440.0, 1432.0, 1434.0, 1434.0, 1434.0, 1439.0, 1435.0, 1435.0, 1438.0, 1438.0, 1436.0, 1437.0, 1432.0, 1438.0, 1434.0, 1440.0, 1435.0, 1433.0, 1434.0, 1434.0, 1441.0, 1434.0, 1437.0, 1433.0, 1431.0, 1428.0, 1441.0, 1430.0, 1431.0, 1427.0, 1431.0, 1434.0, 1437.0, 1432.0, 1430.0, 1434.0, 1436.0, 1439.0, 1435.0, 1436.0, 1427.0, 1431.0, 1433.0, 1439.0, 1432.0, 1431.0, 1430.0, 1430.0, 1439.0, 1431.0, 1437.0, 1429.0, 1428.0, 1429.0, 1432.0, 1432.0, 1434.0, 1433.0, 1441.0, 1434.0, 1437.0, 1430.0, 1433.0, 1436.0, 1435.0, 1436.0, 1435.0, 1431.0, 1429.0, 1430.0, 1431.0, 1433.0, 1434.0, 1435.0, 1432.0, 1433.0, 1433.0, 1435.0, 1430.0, 1434.0, 1438.0, 1431.0, 1432.0, 1443.0, 1438.0, 1437.0, 1430.0, 1430.0, 1430.0, 1433.0, 1432.0, 1431.0, 1431.0, 1430.0, 1429.0, 1430.0, 1432.0, 1434.0, 1431.0, 1432.0, 1436.0, 1433.0, 1429.0, 1433.0, 1432.0, 1433.0, 1428.0, 1429.0, 1430.0, 1430.0, 1433.0, 1439.0, 1432.0, 1431.0, 1433.0, 1430.0, 1437.0, 1437.0, 1435.0, 1429.0, 1434.0, 1433.0, 1432.0, 1429.0, 1428.0, 1431.0, 1430.0, 1430.0, 1435.0, 1432.0, 1431.0, 1430.0, 1430.0, 1429.0, 1433.0, 1427.0, 1430.0, 1432.0, 1435.0, 1437.0, 1427.0, 1427.0, 1427.0, 1429.0, 1427.0, 1431.0, 1429.0, 1435.0, 1430.0, 1433.0, 1433.0, 1430.0, 1433.0, 1433.0, 1431.0, 1438.0, 1434.0, 1433.0, 1428.0]
    },
    "slices": {}
  }
}