{
  "AcquisitionMatrixPE": 70,
  "AcquisitionNumber": 1,
  "AcquisitionTime": "10:13:5.002500",
  "BandwidthPerPixelPhaseEncode": 38.873,
  "BaseResolution": 70,
  "BodyPartExamined": "HEAD",
  "ConsistencyInfo": "N4_VE11B_LATEST_20150530",
  "ConversionSoftware": "dcm2niix",
  "ConversionSoftwareVersion": "v1.0.20190410  GCC6.3.0",
  "DerivedVendorReportedEchoSpacing": 0.000489996,
  "DeviceSerialNumber": "66088",
  "DwellTime": 2.9e-06,
  "EchoTime": 0.03,
  "EchoTrainLength": 53,
  "EffectiveEchoSpacing": 0.000367497,
  "FlipAngle": 90,
  "ImageOrientationPatientDICOM": [0.999503, 0.0194082, 0.0248396, -0.0104672, 0.947619, -0.319231],
  "ImageType": [
    "ORIGINAL",
    "PRIMARY",
    "M",
    "ND",
    "NORM",
    "MOSAIC"
],
  "ImagingFrequency": 123.191,
  "InPlanePhaseEncodingDirectionDICOM": "COL",
  "InstitutionAddress": "Street_StreetNo_City_District_IR_ZIP",
  "InstitutionName": "NBML",
  "InstitutionalDepartmentName": "Department",
  "MRAcquisitionType": "2D",
  "MagneticFieldStrength": 3,
  "Manufacturer": "Siemens",
  "ManufacturersModelName": "Prisma",
  "Modality": "MR",
  "ParallelReductionFactorInPlane": 2,
  "PartialFourier": 1,
  "PatientPosition": "HFS",
  "PercentPhaseFOV": 100,
  "PhaseEncodingDirection": "j-",
  "PhaseEncodingSteps": 105,
  "PhaseOversampling": 0.5,
  "PhaseResolution": 1,
  "PixelBandwidth": 2465,
  "ProcedureStepDescription": "NBML_Project_P-96169-Ebrahiminiya",
  "ProtocolName": "ep2d_p2_Task_3.5_measurment:237",
  "PulseSequenceDetails": "%SiemensSeq%_ep2d_pace",
  "ReceiveCoilActiveElements": "HC1-7",
  "ReceiveCoilName": "HeadNeck_64",
  "ReconMatrixPE": 70,
  "RefLinesPE": 24,
  "RepetitionTime": 2,
  "SAR": 0.0917256,
  "ScanOptions": "FS",
  "ScanningSequence": "EP",
  "SequenceName": "_epfid2d1_70",
  "SequenceVariant": "SK_OSP",
  "SeriesDescription": "ep2d_p2_Task_3.5_measurment:237",
  "SeriesNumber": 3,
  "ShimSetting": [2604, -4452, -3250, 405, -56, 89, -80, 21],
  "SliceThickness": 3.5,
  "SliceTiming": [0.99, 0, 1.0475, 0.0575, 1.1075, 0.1175, 1.165, 0.175, 1.2225, 0.2325, 1.2825, 0.2925, 1.34, 0.35, 1.3975, 0.4075, 1.455, 0.4675, 1.515, 0.525, 1.5725, 0.5825, 1.63, 0.64, 1.69, 0.7, 1.7475, 0.7575, 1.805, 0.815, 1.865, 0.875, 1.9225, 0.9325],
  "SoftwareVersions": "syngo_MR_E11",
  "SpacingBetweenSlices": 3.85,
  "StationName": "AWP66088",
  "TaskName": "categorySelectivity",
  "TotalReadoutTime": 0.0253573,
  "TxRefAmp": 231.029,
  "dcmmeta_affine": [
    [-3.5410964488983154, -0.03708377853035927, 0.11447670310735703, 121.81100463867188],
    [-0.06876049190759659, 3.357278823852539, -1.227428913116455, -88.25314331054688],
    [0.0880032554268837, 1.1309911012649536, 3.6473021507263184, -72.62296295166016],
    [0.0, 0.0, 0.0, 1.0]
],
  "dcmmeta_reorient_transform": [
    [0.0, -1.0, 0.0, 69.0],
    [1.0, 0.0, 0.0, 0.0],
    [0.0, 0.0, 1.0, 0.0],
    [0.0, 0.0, 0.0, 1.0]
],
  "dcmmeta_shape": [70, 70, 34, 237],
  "dcmmeta_slice_dim": 2,
  "dcmmeta_version": 0.6,
  "global": {
    "const": {
      "AccessionNumber": "M.BRZ",
      "AcquisitionMatrix": [70, 0, 0, 70],
      "AngioFlag": "N",
      "BitsAllocated": 16,
      "BitsStored": 12,
      "BodyPartExamined": "HEAD",
      "Columns": 420,
      "EchoNumbers": 1,
      "EchoTime": 30.0,
      "EchoTrainLength": 53,
      "FlipAngle": 90.0,
      "HighBit": 11,
      "ImageOrientationPatient": [0.99950303379017, 0.01940820286715, 0.02483962772892, -0.0104671957802, 0.94761900618691, -0.3192313532939],
      "ImagePositionPatient": [-732.45445168951, -742.95596765175, 187.93829602974],
      "ImageType": [
        "ORIGINAL",
        "PRIMARY",
        "M",
        "ND",
        "NORM",
        "MOSAIC"
],
      "ImagedNucleus": "1H",
      "ImagingFrequency": 123.191117,
      "InPlanePhaseEncodingDirection": "COL",
      "MRAcquisitionType": "2D",
      "MagneticFieldStrength": 3.0,
      "Manufacturer": "SIEMENS",
      "ManufacturerModelName": "Prisma",
      "Modality": "MR",
      "NumberOfAverages": 1.0,
      "NumberOfPhaseEncodingSteps": 105,
      "PercentPhaseFieldOfView": 100.0,
      "PercentSampling": 100.0,
      "PerformedProcedureStepStartTime": "100253.755000",
      "PhotometricInterpretation": "MONOCHROME2",
      "PixelBandwidth": 2465.0,
      "PixelRepresentation": 0,
      "PixelSpacing": [3.542857170105, 3.542857170105],
      "ProtocolName": "ep2d_p2_Task_3.5_measurment:237",
      "RepetitionTime": 2000.0,
      "Rows": 420,
      "SAR": 0.09172556813988,
      "SamplesPerPixel": 1,
      "ScanOptions": "FS",
      "ScanningSequence": "EP",
      "SequenceName": "*epfid2d1_70",
      "SequenceVariant": [
        "SK",
        "OSP"
],
      "SeriesDescription": "ep2d_p2_Task_3.5_measurment:237",
      "SeriesNumber": 3,
      "SeriesTime": "101404.032000",
      "SliceLocation": -37.04127277755,
      "SliceThickness": 3.5,
      "SmallestImagePixelValue": 0,
      "SoftwareVersions": "syngo MR E11",
      "SpacingBetweenSlices": 3.8499999060624,
      "SpecificCharacterSet": "ISO_IR 100",
      "StudyID": "1",
      "StudyTime": "100253.679000",
      "TransmitCoilName": "Body",
      "VariableFlipAngleFlag": "N",
      "WindowCenterWidthExplanation": "Algo1",
      "dBdt": 0.0},
    "slices": {}
  },
  "time": {
    "samples": {
      "AcquisitionNumber": [1, 2, 3, 4, 5, 6, 7, 8, 9, 10, 11, 12, 13, 14, 15, 16, 17, 18, 19, 20, 21, 22, 23, 24, 25, 26, 27, 28, 29, 30, 31, 32, 33, 34, 35, 36, 37, 38, 39, 40, 41, 42, 43, 44, 45, 46, 47, 48, 49, 50, 51, 52, 53, 54, 55, 56, 57, 58, 59, 60, 61, 62, 63, 64, 65, 66, 67, 68, 69, 70, 71, 72, 73, 74, 75, 76, 77, 78, 79, 80, 81, 82, 83, 84, 85, 86, 87, 88, 89, 90, 91, 92, 93, 94, 95, 96, 97, 98, 99, 100, 101, 102, 103, 104, 105, 106, 107, 108, 109, 110, 111, 112, 113, 114, 115, 116, 117, 118, 119, 120, 121, 122, 123, 124, 125, 126, 127, 128, 129, 130, 131, 132, 133, 134, 135, 136, 137, 138, 139, 140, 141, 142, 143, 144, 145, 146, 147, 148, 149, 150, 151, 152, 153, 154, 155, 156, 157, 158, 159, 160, 161, 162, 163, 164, 165, 166, 167, 168, 169, 170, 171, 172, 173, 174, 175, 176, 177, 178, 179, 180, 181, 182, 183, 184, 185, 186, 187, 188, 189, 190, 191, 192, 193, 194, 195, 196, 197, 198, 199, 200, 201, 202, 203, 204, 205, 206, 207, 208, 209, 210, 211, 212, 213, 214, 215, 216, 217, 218, 219, 220, 221, 222, 223, 224, 225, 226, 227, 228, 229, 230, 231, 232, 233, 234, 235, 236, 237],
      "AcquisitionTime": ["101305.002500", "101307.002500", "101309.002500", "101311.002500", "101313.002500", "101315.002500", "101317.002500", "101319.002500", "101321.002500", "101323.002500", "101325.002500", "101327.002500", "101329.002500", "101331.002500", "101333.002500", "101335.002500", "101337.002500", "101339.002500", "101341.002500", "101343.002500", "101345.002500", "101347.002500", "101349.002500", "101351.002500", "101353.002500", "101355.002500", "101357.002500", "101359.002500", "101401.002500", "101403.002500", "101405.002500", "101407.002500", "101409.002500", "101411.002500", "101413.002500", "101415.002500", "101417.002500", "101419.002500", "101421.002500", "101423.002500", "101425.002500", "101427.002500", "101429.002500", "101431.002500", "101433.002500", "101435.002500", "101437.002500", "101439.002500", "101441.002500", "101443.002500", "101445.002500", "101447.002500", "101449.002500", "101451.002500", "101453.002500", "101455.002500", "101457.002500", "101459.002500", "101501.002500", "101503.002500", "101505.002500", "101507.002500", "101509.002500", "101511.002500", "101513.002500", "101515.002500", "101517.002500", "101519.002500", "101521.002500", "101523.002500", "101525.002500", "101527.002500", "101529.002500", "101531.002500", "101533.002500", "101535.002500", "101537.002500", "101539.002500", "101541.002500", "101543.002500", "101545.002500", "101547.002500", "101549.002500", "101551.002500", "101553.002500", "101555.002500", "101557.002500", "101559.002500", "101601.002500", "101603.002500", "101605.002500", "101607.002500", "101609.002500", "101611.002500", "101613.002500", "101615.002500", "101617.002500", "101619.002500", "101621.002500", "101623.002500", "101625.002500", "101627.002500", "101629.002500", "101631.002500", "101633.002500", "101635.002500", "101637.002500", "101639.002500", "101641.002500", "101643.002500", "101645.002500", "101647.002500", "101649.002500", "101651.002500", "101653.002500", "101655.002500", "101657.002500", "101659.002500", "101701.002500", "101703.002500", "101705.002500", "101707.002500", "101709.002500", "101711.002500", "101713.002500", "101715.002500", "101717.002500", "101719.002500", "101721.002500", "101723.002500", "101725.002500", "101727.002500", "101729.002500", "101731.002500", "101733.002500", "101735.002500", "101737.002500", "101739.002500", "101741.002500", "101743.002500", "101745.002500", "101747.002500", "101749.002500", "101751.002500", "101753.002500", "101755.002500", "101757.002500", "101759.002500", "101801.002500", "101803.002500", "101805.002500", "101807.002500", "101809.002500", "101811.002500", "101813.002500", "101815.002500", "101817.002500", "101819.002500", "101821.002500", "101823.002500", "101825.002500", "101827.002500", "101829.002500", "101831.002500", "101833.002500", "101835.002500", "101837.002500", "101839.002500", "101841.002500", "101843.002500", "101845.002500", "101847.002500", "101849.002500", "101851.002500", "101853.002500", "101855.002500", "101857.002500", "101859.002500", "101901.002500", "101903.002500", "101905.002500", "101907.002500", "101909.002500", "101911.002500", "101913.002500", "101915.002500", "101917.002500", "101919.002500", "101921.002500", "101923.002500", "101925.002500", "101927.002500", "101929.002500", "101931.002500", "101933.002500", "101935.002500", "101937.002500", "101939.002500", "101941.002500", "101943.002500", "101945.002500", "101947.002500", "101949.002500", "101951.002500", "101953.002500", "101955.002500", "101957.002500", "101959.002500", "102001.002500", "102003.002500", "102005.002500", "102007.002500", "102009.002500", "102011.002500", "102013.002500", "102015.002500", "102017.002500", "102019.002500", "102021.002500", "102023.002500", "102025.002500", "102027.002500", "102029.002500", "102031.002500", "102033.002500", "102035.002500", "102037.002500", "102039.002500", "102041.002500", "102043.002500", "102045.002500", "102047.002500", "102049.002500", "102051.002500", "102053.002500", "102055.002500", "102057.002500"],
      "ContentTime": ["101404.036000", "101404.039000", "101404.041000", "101404.044000", "101404.046000", "101404.049000", "101404.051000", "101404.054000", "101404.056000", "101404.058000", "101404.061000", "101404.063000", "101404.066000", "101404.075000", "101404.077000", "101404.081000", "101404.083000", "101404.085000", "101404.088000", "101404.090000", "101404.093000", "101404.095000", "101404.098000", "101404.100000", "101404.104000", "101404.107000", "101404.109000", "101404.112000", "101404.114000", "101444.031000", "101444.042000", "101444.045000", "101444.047000", "101444.050000", "101444.052000", "101444.055000", "101444.057000", "101444.060000", "101444.063000", "101444.065000", "101444.068000", "101444.070000", "101444.073000", "101444.076000", "101444.078000", "101444.081000", "101444.083000", "101444.086000", "101444.088000", "101524.030000", "101524.033000", "101524.036000", "101524.039000", "101524.043000", "101524.046000", "101524.049000", "101524.052000", "101524.055000", "101524.058000", "101524.062000", "101524.065000", "101524.068000", "101524.071000", "101524.074000", "101524.077000", "101524.081000", "101524.085000", "101524.088000", "101524.091000", "101604.031000", "101604.033000", "101604.036000", "101604.038000", "101604.041000", "101604.043000", "101604.045000", "101604.048000", "101604.050000", "101604.053000", "101604.055000", "101604.057000", "101604.060000", "101604.062000", "101604.065000", "101604.067000", "101604.070000", "101604.121000", "101604.123000", "101604.125000", "101644.030000", "101644.033000", "101644.036000", "101644.038000", "101644.041000", "101644.043000", "101644.046000", "101644.048000", "101644.051000", "101644.053000", "101644.055000", "101644.058000", "101644.060000", "101644.063000", "101644.065000", "101644.068000", "101644.070000", "101644.072000", "101644.075000", "101644.077000", "101724.030000", "101724.033000", "101724.036000", "101724.038000", "101724.040000", "101724.043000", "101724.045000", "101724.048000", "101724.063000", "101724.066000", "101724.068000", "101724.071000", "101724.073000", "101724.075000", "101724.078000", "101724.080000", "101724.083000", "101724.085000", "101724.088000", "101724.090000", "101804.031000", "101804.033000", "101804.036000", "101804.038000", "101804.041000", "101804.043000", "101804.045000", "101804.048000", "101804.050000", "101804.053000", "101804.055000", "101804.058000", "101804.060000", "101804.062000", "101804.065000", "101804.067000", "101804.070000", "101804.072000", "101804.075000", "101804.077000", "101844.030000", "101844.033000", "101844.036000", "101844.038000", "101844.041000", "101844.043000", "101844.046000", "101844.048000", "101844.051000", "101844.053000", "101844.056000", "101844.058000", "101844.060000", "101844.063000", "101844.065000", "101844.068000", "101844.070000", "101844.072000", "101844.075000", "101844.077000", "101924.031000", "101924.035000", "101924.038000", "101924.041000", "101924.044000", "101924.047000", "101924.050000", "101924.054000", "101924.057000", "101924.060000", "101924.063000", "101924.067000", "101924.070000", "101924.073000", "101924.076000", "101924.079000", "101924.082000", "101924.085000", "101924.089000", "101924.092000", "102004.029000", "102004.032000", "102004.035000", "102004.037000", "102004.039000", "102004.042000", "102004.044000", "102004.047000", "102004.049000", "102004.052000", "102004.054000", "102004.057000", "102004.059000", "102004.061000", "102004.064000", "102004.066000", "102004.069000", "102004.071000", "102004.074000", "102004.076000", "102044.030000", "102044.033000", "102044.036000", "102044.038000", "102044.041000", "102044.043000", "102044.045000", "102044.048000", "102044.050000", "102044.053000", "102044.055000", "102044.058000", "102044.060000", "102044.063000", "102044.065000", "102044.068000", "102044.070000", "102044.072000", "102044.075000", "102044.078000", "102058.511000", "102058.515000", "102058.518000", "102058.521000", "102058.524000", "102058.527000", "102058.530000", "102058.534000"],
      "InstanceCreationTime": ["101404.036000", "101404.039000", "101404.041000", "101404.044000", "101404.046000", "101404.049000", "101404.051000", "101404.054000", "101404.056000", "101404.058000", "101404.061000", "101404.063000", "101404.066000", "101404.075000", "101404.077000", "101404.081000", "101404.083000", "101404.085000", "101404.088000", "101404.090000", "101404.093000", "101404.095000", "101404.098000", "101404.100000", "101404.104000", "101404.107000", "101404.109000", "101404.112000", "101404.114000", "101444.031000", "101444.042000", "101444.045000", "101444.047000", "101444.050000", "101444.052000", "101444.055000", "101444.057000", "101444.060000", "101444.063000", "101444.065000", "101444.068000", "101444.070000", "101444.073000", "101444.076000", "101444.078000", "101444.081000", "101444.083000", "101444.086000", "101444.088000", "101524.030000", "101524.033000", "101524.036000", "101524.039000", "101524.043000", "101524.046000", "101524.049000", "101524.052000", "101524.055000", "101524.058000", "101524.062000", "101524.065000", "101524.068000", "101524.071000", "101524.074000", "101524.077000", "101524.081000", "101524.085000", "101524.088000", "101524.091000", "101604.031000", "101604.033000", "101604.036000", "101604.038000", "101604.041000", "101604.043000", "101604.045000", "101604.048000", "101604.050000", "101604.053000", "101604.055000", "101604.057000", "101604.060000", "101604.062000", "101604.065000", "101604.067000", "101604.070000", "101604.121000", "101604.123000", "101604.125000", "101644.030000", "101644.033000", "101644.036000", "101644.038000", "101644.041000", "101644.043000", "101644.046000", "101644.048000", "101644.051000", "101644.053000", "101644.055000", "101644.058000", "101644.060000", "101644.063000", "101644.065000", "101644.068000", "101644.070000", "101644.072000", "101644.075000", "101644.077000", "101724.030000", "101724.033000", "101724.036000", "101724.038000", "101724.040000", "101724.043000", "101724.045000", "101724.048000", "101724.063000", "101724.066000", "101724.068000", "101724.071000", "101724.073000", "101724.075000", "101724.078000", "101724.080000", "101724.083000", "101724.085000", "101724.088000", "101724.090000", "101804.031000", "101804.033000", "101804.036000", "101804.038000", "101804.041000", "101804.043000", "101804.045000", "101804.048000", "101804.050000", "101804.053000", "101804.055000", "101804.058000", "101804.060000", "101804.062000", "101804.065000", "101804.067000", "101804.070000", "101804.072000", "101804.075000", "101804.077000", "101844.030000", "101844.033000", "101844.036000", "101844.038000", "101844.041000", "101844.043000", "101844.046000", "101844.048000", "101844.051000", "101844.053000", "101844.056000", "101844.058000", "101844.060000", "101844.063000", "101844.065000", "101844.068000", "101844.070000", "101844.072000", "101844.075000", "101844.077000", "101924.031000", "101924.035000", "101924.038000", "101924.041000", "101924.044000", "101924.047000", "101924.050000", "101924.054000", "101924.057000", "101924.060000", "101924.063000", "101924.067000", "101924.070000", "101924.073000", "101924.076000", "101924.079000", "101924.082000", "101924.085000", "101924.089000", "101924.092000", "102004.029000", "102004.032000", "102004.035000", "102004.037000", "102004.039000", "102004.042000", "102004.044000", "102004.047000", "102004.049000", "102004.052000", "102004.054000", "102004.057000", "102004.059000", "102004.061000", "102004.064000", "102004.066000", "102004.069000", "102004.071000", "102004.074000", "102004.076000", "102044.030000", "102044.033000", "102044.036000", "102044.038000", "102044.041000", "102044.043000", "102044.045000", "102044.048000", "102044.050000", "102044.053000", "102044.055000", "102044.058000", "102044.060000", "102044.063000", "102044.065000", "102044.068000", "102044.070000", "102044.072000", "102044.075000", "102044.078000", "102058.511000", "102058.515000", "102058.518000", "102058.521000", "102058.524000", "102058.527000", "102058.530000", "102058.534000"],
      "InstanceNumber": [1, 2, 3, 4, 5, 6, 7, 8, 9, 10, 11, 12, 13, 14, 15, 16, 17, 18, 19, 20, 21, 22, 23, 24, 25, 26, 27, 28, 29, 30, 31, 32, 33, 34, 35, 36, 37, 38, 39, 40, 41, 42, 43, 44, 45, 46, 47, 48, 49, 50, 51, 52, 53, 54, 55, 56, 57, 58, 59, 60, 61, 62, 63, 64, 65, 66, 67, 68, 69, 70, 71, 72, 73, 74, 75, 76, 77, 78, 79, 80, 81, 82, 83, 84, 85, 86, 87, 88, 89, 90, 91, 92, 93, 94, 95, 96, 97, 98, 99, 100, 101, 102, 103, 104, 105, 106, 107, 108, 109, 110, 111, 112, 113, 114, 115, 116, 117, 118, 119, 120, 121, 122, 123, 124, 125, 126, 127, 128, 129, 130, 131, 132, 133, 134, 135, 136, 137, 138, 139, 140, 141, 142, 143, 144, 145, 146, 147, 148, 149, 150, 151, 152, 153, 154, 155, 156, 157, 158, 159, 160, 161, 162, 163, 164, 165, 166, 167, 168, 169, 170, 171, 172, 173, 174, 175, 176, 177, 178, 179, 180, 181, 182, 183, 184, 185, 186, 187, 188, 189, 190, 191, 192, 193, 194, 195, 196, 197, 198, 199, 200, 201, 202, 203, 204, 205, 206, 207, 208, 209, 210, 211, 212, 213, 214, 215, 216, 217, 218, 219, 220, 221, 222, 223, 224, 225, 226, 227, 228, 229, 230, 231, 232, 233, 234, 235, 236, 237],
      "LargestImagePixelValue": [2098, 1741, 1680, 2249, 1754, 1831, 1788, 1757, 2762, 2289, 1733, 1848, 1770, 2060, 2135, 1710, 2794, 1745, 1713, 1720, 1682, 2551, 2146, 1683, 1900, 1704, 1766, 2223, 1706, 2281, 1893, 1758, 1856, 2763, 2568, 1777, 1720, 1746, 1775, 1860, 2901, 1724, 1751, 1837, 1954, 1721, 1757, 1684, 1930, 1774, 1751, 1700, 1718, 1736, 2226, 2621, 1736, 1912, 1952, 1789, 1710, 1721, 1887, 1822, 1991, 1710, 1763, 1734, 1716, 1714, 1838, 2290, 1743, 1732, 1744, 1720, 2074, 1744, 1718, 1835, 1849, 1711, 2721, 1778, 1733, 1948, 1690, 2422, 1699, 1714, 2469, 1704, 1713, 1697, 1727, 1689, 2486, 1731, 1704, 2762, 2543, 1705, 1737, 1694, 1727, 2159, 1712, 1696, 1896, 1729, 1706, 2798, 1680, 1822, 1692, 1873, 1702, 1679, 1883, 1708, 2728, 1711, 1864, 1715, 1661, 1679, 2072, 2535, 2206, 1764, 2039, 1949, 1682, 2002, 1774, 1725, 1799, 1665, 1691, 2449, 1702, 1775, 2010, 1701, 1828, 2483, 2231, 1840, 1766, 1686, 2135, 1710, 1702, 1923, 1899, 1825, 1770, 1686, 2502, 1713, 2687, 1731, 1824, 1745, 1674, 1946, 1726, 2148, 1700, 1714, 1806, 1873, 1723, 1977, 1709, 2694, 1980, 1740, 1709, 1980, 1696, 1740, 1833, 1718, 2553, 1716, 2268, 1800, 1678, 1682, 1676, 2320, 1863, 1711, 1653, 1957, 2443, 1916, 1821, 2100, 1738, 2032, 1720, 2044, 1706, 1861, 1706, 1881, 1999, 1792, 1931, 1715, 2001, 1917, 1763, 2580, 1926, 1779, 1725, 2344, 1737, 1756, 1781, 1711, 2212, 1853, 1989, 1686, 1741, 2027, 2257, 3004, 2025, 1711, 1744, 1755, 1664],
      "WindowCenter": [684.0, 682.0, 682.0, 684.0, 682.0, 682.0, 683.0, 683.0, 684.0, 683.0, 682.0, 683.0, 682.0, 683.0, 682.0, 682.0, 683.0, 681.0, 681.0, 682.0, 683.0, 685.0, 683.0, 682.0, 683.0, 683.0, 684.0, 684.0, 683.0, 684.0, 682.0, 683.0, 683.0, 685.0, 683.0, 683.0, 683.0, 683.0, 683.0, 684.0, 685.0, 682.0, 683.0, 682.0, 683.0, 683.0, 682.0, 682.0, 683.0, 684.0, 683.0, 683.0, 683.0, 684.0, 685.0, 685.0, 682.0, 683.0, 683.0, 683.0, 683.0, 683.0, 683.0, 683.0, 683.0, 682.0, 683.0, 683.0, 682.0, 683.0, 683.0, 684.0, 683.0, 683.0, 683.0, 683.0, 684.0, 682.0, 682.0, 683.0, 683.0, 683.0, 684.0, 682.0, 682.0, 684.0, 683.0, 684.0, 683.0, 682.0, 684.0, 682.0, 682.0, 683.0, 684.0, 683.0, 685.0, 683.0, 682.0, 685.0, 684.0, 682.0, 682.0, 683.0, 683.0, 683.0, 682.0, 683.0, 683.0, 682.0, 682.0, 684.0, 682.0, 683.0, 683.0, 683.0, 683.0, 683.0, 684.0, 683.0, 685.0, 682.0, 683.0, 683.0, 683.0, 682.0, 683.0, 685.0, 683.0, 682.0, 683.0, 683.0, 682.0, 683.0, 683.0, 683.0, 683.0, 682.0, 683.0, 684.0, 682.0, 683.0, 682.0, 682.0, 682.0, 684.0, 683.0, 682.0, 683.0, 682.0, 683.0, 681.0, 683.0, 684.0, 682.0, 683.0, 683.0, 683.0, 684.0, 683.0, 684.0, 682.0, 682.0, 682.0, 682.0, 683.0, 682.0, 683.0, 683.0, 683.0, 683.0, 683.0, 682.0, 683.0, 682.0, 684.0, 683.0, 682.0, 682.0, 683.0, 682.0, 683.0, 683.0, 682.0, 683.0, 682.0, 684.0, 682.0, 682.0, 683.0, 682.0, 684.0, 683.0, 682.0, 683.0, 684.0, 684.0, 683.0, 683.0, 684.0, 682.0, 683.0, 682.0, 683.0, 682.0, 683.0, 682.0, 683.0, 683.0, 683.0, 683.0, 683.0, 684.0, 684.0, 683.0, 684.0, 683.0, 683.0, 682.0, 685.0, 682.0, 683.0, 683.0, 683.0, 683.0, 683.0, 684.0, 682.0, 682.0, 684.0, 684.0, 684.0, 684.0, 683.0, 683.0, 682.0, 684.0],
      "WindowWidth": [1529.0, 1524.0, 1524.0, 1529.0, 1523.0, 1524.0, 1527.0, 1527.0, 1532.0, 1527.0, 1522.0, 1525.0, 1524.0, 1528.0, 1525.0, 1522.0, 1529.0, 1519.0, 1521.0, 1524.0, 1526.0, 1533.0, 1527.0, 1523.0, 1527.0, 1526.0, 1528.0, 1530.0, 1524.0, 1531.0, 1525.0, 1525.0, 1527.0, 1534.0, 1529.0, 1526.0, 1526.0, 1525.0, 1526.0, 1529.0, 1535.0, 1524.0, 1525.0, 1524.0, 1526.0, 1525.0, 1524.0, 1522.0, 1527.0, 1528.0, 1526.0, 1526.0, 1527.0, 1528.0, 1532.0, 1533.0, 1523.0, 1526.0, 1526.0, 1525.0, 1525.0, 1526.0, 1525.0, 1525.0, 1527.0, 1524.0, 1526.0, 1524.0, 1524.0, 1524.0, 1527.0, 1531.0, 1527.0, 1527.0, 1525.0, 1524.0, 1529.0, 1523.0, 1522.0, 1527.0, 1526.0, 1525.0, 1531.0, 1524.0, 1524.0, 1528.0, 1524.0, 1531.0, 1524.0, 1523.0, 1528.0, 1523.0, 1522.0, 1525.0, 1527.0, 1526.0, 1532.0, 1525.0, 1523.0, 1532.0, 1530.0, 1522.0, 1523.0, 1526.0, 1525.0, 1527.0, 1522.0, 1525.0, 1525.0, 1524.0, 1520.0, 1530.0, 1521.0, 1525.0, 1524.0, 1526.0, 1527.0, 1526.0, 1529.0, 1525.0, 1533.0, 1522.0, 1526.0, 1524.0, 1525.0, 1524.0, 1528.0, 1532.0, 1528.0, 1522.0, 1527.0, 1525.0, 1523.0, 1526.0, 1524.0, 1525.0, 1526.0, 1523.0, 1525.0, 1531.0, 1523.0, 1524.0, 1526.0, 1523.0, 1523.0, 1529.0, 1526.0, 1523.0, 1525.0, 1522.0, 1525.0, 1522.0, 1524.0, 1528.0, 1524.0, 1524.0, 1525.0, 1525.0, 1530.0, 1524.0, 1530.0, 1523.0, 1523.0, 1524.0, 1524.0, 1526.0, 1524.0, 1526.0, 1525.0, 1525.0, 1525.0, 1524.0, 1523.0, 1526.0, 1524.0, 1530.0, 1526.0, 1523.0, 1522.0, 1527.0, 1523.0, 1525.0, 1526.0, 1523.0, 1529.0, 1523.0, 1528.0, 1524.0, 1522.0, 1526.0, 1524.0, 1530.0, 1525.0, 1524.0, 1525.0, 1528.0, 1530.0, 1525.0, 1528.0, 1529.0, 1523.0, 1527.0, 1524.0, 1527.0, 1523.0, 1526.0, 1522.0, 1526.0, 1525.0, 1525.0, 1526.0, 1525.0, 1529.0, 1529.0, 1525.0, 1532.0, 1526.0, 1526.0, 1524.0, 1532.0, 1523.0, 1524.0, 1525.0, 1524.0, 1528.0, 1527.0, 1528.0, 1523.0, 1524.0, 1529.0, 1529.0, 1532.0, 1528.0, 1524.0, 1524.0, 1525.0, 1527.0]
    },
    "slices": {}
  }
}