{
  "AcquisitionMatrixPE": 70,
  "AcquisitionNumber": 1,
  "AcquisitionTime": "11:04:11.945000",
  "BandwidthPerPixelPhaseEncode": 38.873,
  "BaseResolution": 70,
  "BodyPartExamined": "HEAD",
  "ConsistencyInfo": "N4_VE11B_LATEST_20150530",
  "ConversionSoftware": "dcm2niix",
  "ConversionSoftwareVersion": "v1.0.20190410  GCC6.3.0",
  "DerivedVendorReportedEchoSpacing": 0.000489996,
  "DeviceSerialNumber": "66088",
  "DwellTime": 2.9e-06,
  "EchoTime": 0.03,
  "EchoTrainLength": 53,
  "EffectiveEchoSpacing": 0.000367497,
  "FlipAngle": 90,
  "ImageOrientationPatientDICOM": [0.999503, 0.0194082, 0.0248396, -0.0104672, 0.947619, -0.319231],
  "ImageType": [
    "ORIGINAL",
    "PRIMARY",
    "M",
    "ND",
    "NORM",
    "MOSAIC"
],
  "ImagingFrequency": 123.191,
  "InPlanePhaseEncodingDirectionDICOM": "COL",
  "InstitutionAddress": "Street_StreetNo_City_District_IR_ZIP",
  "InstitutionName": "NBML",
  "InstitutionalDepartmentName": "Department",
  "MRAcquisitionType": "2D",
  "MagneticFieldStrength": 3,
  "Manufacturer": "Siemens",
  "ManufacturersModelName": "Prisma",
  "Modality": "MR",
  "ParallelReductionFactorInPlane": 2,
  "PartialFourier": 1,
  "PatientPosition": "HFS",
  "PercentPhaseFOV": 100,
  "PhaseEncodingDirection": "j-",
  "PhaseEncodingSteps": 105,
  "PhaseOversampling": 0.5,
  "PhaseResolution": 1,
  "PixelBandwidth": 2465,
  "ProcedureStepDescription": "NBML_Project_P-96169-Ebrahiminiya",
  "ProtocolName": "ep2d_p2_Task_3.5_measurment:237",
  "PulseSequenceDetails": "%SiemensSeq%_ep2d_pace",
  "ReceiveCoilActiveElements": "HC1-7",
  "ReceiveCoilName": "HeadNeck_64",
  "ReconMatrixPE": 70,
  "RefLinesPE": 24,
  "RepetitionTime": 2,
  "SAR": 0.0917256,
  "ScanOptions": "FS",
  "ScanningSequence": "EP",
  "SequenceName": "_epfid2d1_70",
  "SequenceVariant": "SK_OSP",
  "SeriesDescription": "ep2d_p2_Task_3.5_measurment:237",
  "SeriesNumber": 9,
  "ShimSetting": [2604, -4452, -3250, 405, -56, 89, -80, 21],
  "SliceThickness": 3.5,
  "SliceTiming": [0.99, 0, 1.05, 0.06, 1.1075, 0.1175, 1.165, 0.175, 1.2225, 0.2325, 1.2825, 0.2925, 1.34, 0.35, 1.3975, 0.4075, 1.4575, 0.4675, 1.515, 0.525, 1.5725, 0.5825, 1.63, 0.64, 1.69, 0.7, 1.7475, 0.7575, 1.805, 0.815, 1.865, 0.875, 1.9225, 0.9325],
  "SoftwareVersions": "syngo_MR_E11",
  "SpacingBetweenSlices": 3.85,
  "StationName": "AWP66088",
  "TaskName": "categorySelectivity",
  "TotalReadoutTime": 0.0253573,
  "TxRefAmp": 231.029,
  "dcmmeta_affine": [
    [-3.5410964488983154, -0.03708377853035927, 0.11447670310735703, 121.81100463867188],
    [-0.06876049190759659, 3.357278823852539, -1.227428913116455, -88.25314331054688],
    [0.0880032554268837, 1.1309911012649536, 3.6473021507263184, -72.62296295166016],
    [0.0, 0.0, 0.0, 1.0]
],
  "dcmmeta_reorient_transform": [
    [0.0, -1.0, 0.0, 69.0],
    [1.0, 0.0, 0.0, 0.0],
    [0.0, 0.0, 1.0, 0.0],
    [0.0, 0.0, 0.0, 1.0]
],
  "dcmmeta_shape": [70, 70, 34, 237],
  "dcmmeta_slice_dim": 2,
  "dcmmeta_version": 0.6,
  "global": {
    "const": {
      "AccessionNumber": "M.BRZ",
      "AcquisitionMatrix": [70, 0, 0, 70],
      "AngioFlag": "N",
      "BitsAllocated": 16,
      "BitsStored": 12,
      "BodyPartExamined": "HEAD",
      "Columns": 420,
      "EchoNumbers": 1,
      "EchoTime": 30.0,
      "EchoTrainLength": 53,
      "FlipAngle": 90.0,
      "HighBit": 11,
      "ImageOrientationPatient": [0.99950303379017, 0.01940820286715, 0.02483962772892, -0.0104671957802, 0.94761900618691, -0.3192313532939],
      "ImagePositionPatient": [-732.45445168951, -742.95596765175, 187.93829602974],
      "ImageType": [
        "ORIGINAL",
        "PRIMARY",
        "M",
        "ND",
        "NORM",
        "MOSAIC"
],
      "ImagedNucleus": "1H",
      "ImagingFrequency": 123.191119,
      "InPlanePhaseEncodingDirection": "COL",
      "MRAcquisitionType": "2D",
      "MagneticFieldStrength": 3.0,
      "Manufacturer": "SIEMENS",
      "ManufacturerModelName": "Prisma",
      "Modality": "MR",
      "NumberOfAverages": 1.0,
      "NumberOfPhaseEncodingSteps": 105,
      "PercentPhaseFieldOfView": 100.0,
      "PercentSampling": 100.0,
      "PerformedProcedureStepStartTime": "100253.755000",
      "PhotometricInterpretation": "MONOCHROME2",
      "PixelBandwidth": 2465.0,
      "PixelRepresentation": 0,
      "PixelSpacing": [3.542857170105, 3.542857170105],
      "ProtocolName": "ep2d_p2_Task_3.5_measurment:237",
      "RepetitionTime": 2000.0,
      "Rows": 420,
      "SAR": 0.09172556813988,
      "SamplesPerPixel": 1,
      "ScanOptions": "FS",
      "ScanningSequence": "EP",
      "SequenceName": "*epfid2d1_70",
      "SequenceVariant": [
        "SK",
        "OSP"
],
      "SeriesDescription": "ep2d_p2_Task_3.5_measurment:237",
      "SeriesNumber": 9,
      "SeriesTime": "110504.032000",
      "SliceLocation": -37.04127277755,
      "SliceThickness": 3.5,
      "SmallestImagePixelValue": 0,
      "SoftwareVersions": "syngo MR E11",
      "SpacingBetweenSlices": 3.8499999060624,
      "SpecificCharacterSet": "ISO_IR 100",
      "StudyID": "1",
      "StudyTime": "100253.679000",
      "TransmitCoilName": "Body",
      "VariableFlipAngleFlag": "N",
      "WindowCenterWidthExplanation": "Algo1",
      "dBdt": 0.0},
    "slices": {}
  },
  "time": {
    "samples": {
      "AcquisitionNumber": [1, 2, 3, 4, 5, 6, 7, 8, 9, 10, 11, 12, 13, 14, 15, 16, 17, 18, 19, 20, 21, 22, 23, 24, 25, 26, 27, 28, 29, 30, 31, 32, 33, 34, 35, 36, 37, 38, 39, 40, 41, 42, 43, 44, 45, 46, 47, 48, 49, 50, 51, 52, 53, 54, 55, 56, 57, 58, 59, 60, 61, 62, 63, 64, 65, 66, 67, 68, 69, 70, 71, 72, 73, 74, 75, 76, 77, 78, 79, 80, 81, 82, 83, 84, 85, 86, 87, 88, 89, 90, 91, 92, 93, 94, 95, 96, 97, 98, 99, 100, 101, 102, 103, 104, 105, 106, 107, 108, 109, 110, 111, 112, 113, 114, 115, 116, 117, 118, 119, 120, 121, 122, 123, 124, 125, 126, 127, 128, 129, 130, 131, 132, 133, 134, 135, 136, 137, 138, 139, 140, 141, 142, 143, 144, 145, 146, 147, 148, 149, 150, 151, 152, 153, 154, 155, 156, 157, 158, 159, 160, 161, 162, 163, 164, 165, 166, 167, 168, 169, 170, 171, 172, 173, 174, 175, 176, 177, 178, 179, 180, 181, 182, 183, 184, 185, 186, 187, 188, 189, 190, 191, 192, 193, 194, 195, 196, 197, 198, 199, 200, 201, 202, 203, 204, 205, 206, 207, 208, 209, 210, 211, 212, 213, 214, 215, 216, 217, 218, 219, 220, 221, 222, 223, 224, 225, 226, 227, 228, 229, 230, 231, 232, 233, 234, 235, 236, 237],
      "AcquisitionTime": ["110411.945000", "110413.945000", "110415.945000", "110417.945000", "110419.945000", "110421.945000", "110423.945000", "110425.945000", "110427.945000", "110429.945000", "110431.945000", "110433.945000", "110435.945000", "110437.945000", "110439.945000", "110441.945000", "110443.945000", "110445.945000", "110447.945000", "110449.945000", "110451.945000", "110453.945000", "110455.945000", "110457.945000", "110459.945000", "110501.945000", "110503.945000", "110505.945000", "110507.945000", "110509.945000", "110511.945000", "110513.945000", "110515.945000", "110517.945000", "110519.945000", "110521.945000", "110523.945000", "110525.945000", "110527.945000", "110529.945000", "110531.945000", "110533.945000", "110535.945000", "110537.945000", "110539.945000", "110541.945000", "110543.945000", "110545.945000", "110547.945000", "110549.945000", "110551.945000", "110553.945000", "110555.945000", "110557.945000", "110559.945000", "110601.945000", "110603.945000", "110605.945000", "110607.945000", "110609.945000", "110611.945000", "110613.945000", "110615.945000", "110617.945000", "110619.945000", "110621.945000", "110623.945000", "110625.945000", "110627.945000", "110629.945000", "110631.945000", "110633.945000", "110635.945000", "110637.945000", "110639.945000", "110641.945000", "110643.945000", "110645.945000", "110647.945000", "110649.945000", "110651.945000", "110653.945000", "110655.945000", "110657.945000", "110659.945000", "110701.945000", "110703.945000", "110705.945000", "110707.945000", "110709.945000", "110711.945000", "110713.945000", "110715.945000", "110717.945000", "110719.945000", "110721.945000", "110723.945000", "110725.945000", "110727.945000", "110729.945000", "110731.945000", "110733.945000", "110735.945000", "110737.945000", "110739.945000", "110741.945000", "110743.945000", "110745.945000", "110747.945000", "110749.945000", "110751.945000", "110753.945000", "110755.945000", "110757.945000", "110759.945000", "110801.945000", "110803.945000", "110805.945000", "110807.945000", "110809.945000", "110811.945000", "110813.945000", "110815.945000", "110817.945000", "110819.945000", "110821.945000", "110823.945000", "110825.945000", "110827.945000", "110829.945000", "110831.945000", "110833.945000", "110835.945000", "110837.945000", "110839.945000", "110841.945000", "110843.945000", "110845.945000", "110847.945000", "110849.945000", "110851.945000", "110853.945000", "110855.945000", "110857.945000", "110859.945000", "110901.945000", "110903.945000", "110905.945000", "110907.945000", "110909.945000", "110911.945000", "110913.945000", "110915.945000", "110917.945000", "110919.945000", "110921.945000", "110923.945000", "110925.945000", "110927.945000", "110929.945000", "110931.945000", "110933.945000", "110935.945000", "110937.945000", "110939.945000", "110941.945000", "110943.945000", "110945.945000", "110947.945000", "110949.945000", "110951.945000", "110953.945000", "110955.945000", "110957.945000", "110959.945000", "111001.945000", "111003.945000", "111005.945000", "111007.945000", "111009.945000", "111011.945000", "111013.945000", "111015.945000", "111017.945000", "111019.945000", "111021.945000", "111023.945000", "111025.945000", "111027.945000", "111029.945000", "111031.945000", "111033.945000", "111035.945000", "111037.945000", "111039.945000", "111041.945000", "111043.945000", "111045.945000", "111047.945000", "111049.945000", "111051.945000", "111053.945000", "111055.945000", "111057.945000", "111059.945000", "111101.945000", "111103.945000", "111105.945000", "111107.945000", "111109.945000", "111111.945000", "111113.945000", "111115.945000", "111117.945000", "111119.945000", "111121.945000", "111123.945000", "111125.945000", "111127.945000", "111129.945000", "111131.945000", "111133.945000", "111135.945000", "111137.945000", "111139.945000", "111141.945000", "111143.945000", "111145.945000", "111147.945000", "111149.945000", "111151.945000", "111153.945000", "111155.945000", "111157.945000", "111159.945000", "111201.945000", "111203.945000"],
      "ContentTime": ["110504.035000", "110504.039000", "110504.041000", "110504.044000", "110504.046000", "110504.049000", "110504.051000", "110504.054000", "110504.056000", "110504.058000", "110504.061000", "110504.063000", "110504.066000", "110504.068000", "110504.071000", "110504.073000", "110504.081000", "110504.083000", "110504.086000", "110504.089000", "110504.091000", "110504.093000", "110504.096000", "110504.098000", "110504.101000", "110504.103000", "110544.031000", "110544.034000", "110544.037000", "110544.040000", "110544.044000", "110544.047000", "110544.050000", "110544.053000", "110544.057000", "110544.060000", "110544.063000", "110544.066000", "110544.069000", "110544.073000", "110544.076000", "110544.085000", "110544.088000", "110544.091000", "110544.095000", "110544.098000", "110624.030000", "110624.033000", "110624.036000", "110624.040000", "110624.043000", "110624.046000", "110624.049000", "110624.052000", "110624.056000", "110624.059000", "110624.062000", "110624.065000", "110624.069000", "110624.072000", "110624.075000", "110624.078000", "110624.082000", "110624.085000", "110624.088000", "110624.091000", "110704.031000", "110704.034000", "110704.037000", "110704.039000", "110704.042000", "110704.045000", "110704.047000", "110704.050000", "110704.052000", "110704.055000", "110704.058000", "110704.060000", "110704.063000", "110704.066000", "110704.068000", "110704.071000", "110704.073000", "110704.076000", "110704.079000", "110704.081000", "110744.031000", "110744.034000", "110744.037000", "110744.041000", "110744.044000", "110744.047000", "110744.050000", "110744.053000", "110744.056000", "110744.059000", "110744.062000", "110744.066000", "110744.069000", "110744.073000", "110744.076000", "110744.079000", "110744.082000", "110744.085000", "110744.088000", "110744.092000", "110804.030000", "110804.033000", "110804.036000", "110804.038000", "110804.041000", "110804.043000", "110804.045000", "110804.048000", "110804.050000", "110804.053000", "110844.031000", "110844.035000", "110844.038000", "110844.041000", "110844.044000", "110844.047000", "110844.050000", "110844.054000", "110844.057000", "110844.060000", "110844.063000", "110844.066000", "110844.070000", "110844.073000", "110844.076000", "110844.079000", "110844.082000", "110844.086000", "110844.089000", "110844.092000", "110924.031000", "110924.035000", "110924.038000", "110924.041000", "110924.044000", "110924.048000", "110924.051000", "110924.054000", "110924.057000", "110924.060000", "110924.063000", "110924.067000", "110924.070000", "110924.073000", "110924.076000", "110924.079000", "110924.082000", "110924.086000", "110924.089000", "110924.092000", "111004.031000", "111004.039000", "111004.042000", "111004.045000", "111004.047000", "111004.050000", "111004.054000", "111004.056000", "111004.059000", "111004.062000", "111004.064000", "111004.067000", "111004.069000", "111004.072000", "111004.075000", "111004.077000", "111004.080000", "111004.082000", "111004.085000", "111004.088000", "111044.031000", "111044.038000", "111044.042000", "111044.045000", "111044.048000", "111044.051000", "111044.054000", "111044.057000", "111044.060000", "111044.064000", "111044.067000", "111044.070000", "111044.073000", "111044.077000", "111044.080000", "111044.083000", "111044.086000", "111044.090000", "111044.093000", "111044.096000", "111124.032000", "111124.036000", "111124.039000", "111124.042000", "111124.045000", "111124.048000", "111124.051000", "111124.055000", "111124.058000", "111124.061000", "111124.064000", "111124.068000", "111124.071000", "111124.075000", "111124.078000", "111124.081000", "111124.085000", "111124.088000", "111124.091000", "111124.094000", "111204.031000", "111204.034000", "111204.036000", "111204.039000", "111204.041000", "111204.044000", "111204.046000", "111204.048000", "111204.051000", "111204.053000", "111204.056000", "111204.058000", "111204.061000", "111204.063000", "111204.065000", "111204.068000", "111204.070000", "111204.074000", "111204.077000", "111204.079000", "111205.150000"],
      "InstanceCreationTime": ["110504.035000", "110504.039000", "110504.041000", "110504.044000", "110504.046000", "110504.049000", "110504.051000", "110504.054000", "110504.056000", "110504.058000", "110504.061000", "110504.063000", "110504.066000", "110504.068000", "110504.071000", "110504.073000", "110504.081000", "110504.083000", "110504.086000", "110504.089000", "110504.091000", "110504.093000", "110504.096000", "110504.098000", "110504.101000", "110504.103000", "110544.031000", "110544.034000", "110544.037000", "110544.040000", "110544.044000", "110544.047000", "110544.050000", "110544.053000", "110544.057000", "110544.060000", "110544.063000", "110544.066000", "110544.069000", "110544.073000", "110544.076000", "110544.085000", "110544.088000", "110544.091000", "110544.095000", "110544.098000", "110624.030000", "110624.033000", "110624.036000", "110624.040000", "110624.043000", "110624.046000", "110624.049000", "110624.052000", "110624.056000", "110624.059000", "110624.062000", "110624.065000", "110624.069000", "110624.072000", "110624.075000", "110624.078000", "110624.082000", "110624.085000", "110624.088000", "110624.091000", "110704.031000", "110704.034000", "110704.037000", "110704.039000", "110704.042000", "110704.045000", "110704.047000", "110704.050000", "110704.052000", "110704.055000", "110704.058000", "110704.060000", "110704.063000", "110704.066000", "110704.068000", "110704.071000", "110704.073000", "110704.076000", "110704.079000", "110704.081000", "110744.031000", "110744.034000", "110744.037000", "110744.041000", "110744.044000", "110744.047000", "110744.050000", "110744.053000", "110744.056000", "110744.059000", "110744.062000", "110744.066000", "110744.069000", "110744.073000", "110744.076000", "110744.079000", "110744.082000", "110744.085000", "110744.088000", "110744.092000", "110804.030000", "110804.033000", "110804.036000", "110804.038000", "110804.041000", "110804.043000", "110804.045000", "110804.048000", "110804.050000", "110804.053000", "110844.031000", "110844.035000", "110844.038000", "110844.041000", "110844.044000", "110844.047000", "110844.050000", "110844.054000", "110844.057000", "110844.060000", "110844.063000", "110844.066000", "110844.070000", "110844.073000", "110844.076000", "110844.079000", "110844.082000", "110844.086000", "110844.089000", "110844.092000", "110924.031000", "110924.035000", "110924.038000", "110924.041000", "110924.044000", "110924.048000", "110924.051000", "110924.054000", "110924.057000", "110924.060000", "110924.063000", "110924.067000", "110924.070000", "110924.073000", "110924.076000", "110924.079000", "110924.082000", "110924.086000", "110924.089000", "110924.092000", "111004.031000", "111004.039000", "111004.042000", "111004.045000", "111004.047000", "111004.050000", "111004.054000", "111004.056000", "111004.059000", "111004.062000", "111004.064000", "111004.067000", "111004.069000", "111004.072000", "111004.075000", "111004.077000", "111004.080000", "111004.082000", "111004.085000", "111004.088000", "111044.031000", "111044.038000", "111044.042000", "111044.045000", "111044.048000", "111044.051000", "111044.054000", "111044.057000", "111044.060000", "111044.064000", "111044.067000", "111044.070000", "111044.073000", "111044.077000", "111044.080000", "111044.083000", "111044.086000", "111044.090000", "111044.093000", "111044.096000", "111124.032000", "111124.036000", "111124.039000", "111124.042000", "111124.045000", "111124.048000", "111124.051000", "111124.055000", "111124.058000", "111124.061000", "111124.064000", "111124.068000", "111124.071000", "111124.075000", "111124.078000", "111124.081000", "111124.085000", "111124.088000", "111124.091000", "111124.094000", "111204.031000", "111204.034000", "111204.036000", "111204.039000", "111204.041000", "111204.044000", "111204.046000", "111204.048000", "111204.051000", "111204.053000", "111204.056000", "111204.058000", "111204.061000", "111204.063000", "111204.065000", "111204.068000", "111204.070000", "111204.074000", "111204.077000", "111204.079000", "111205.150000"],
      "InstanceNumber": [1, 2, 3, 4, 5, 6, 7, 8, 9, 10, 11, 12, 13, 14, 15, 16, 17, 18, 19, 20, 21, 22, 23, 24, 25, 26, 27, 28, 29, 30, 31, 32, 33, 34, 35, 36, 37, 38, 39, 40, 41, 42, 43, 44, 45, 46, 47, 48, 49, 50, 51, 52, 53, 54, 55, 56, 57, 58, 59, 60, 61, 62, 63, 64, 65, 66, 67, 68, 69, 70, 71, 72, 73, 74, 75, 76, 77, 78, 79, 80, 81, 82, 83, 84, 85, 86, 87, 88, 89, 90, 91, 92, 93, 94, 95, 96, 97, 98, 99, 100, 101, 102, 103, 104, 105, 106, 107, 108, 109, 110, 111, 112, 113, 114, 115, 116, 117, 118, 119, 120, 121, 122, 123, 124, 125, 126, 127, 128, 129, 130, 131, 132, 133, 134, 135, 136, 137, 138, 139, 140, 141, 142, 143, 144, 145, 146, 147, 148, 149, 150, 151, 152, 153, 154, 155, 156, 157, 158, 159, 160, 161, 162, 163, 164, 165, 166, 167, 168, 169, 170, 171, 172, 173, 174, 175, 176, 177, 178, 179, 180, 181, 182, 183, 184, 185, 186, 187, 188, 189, 190, 191, 192, 193, 194, 195, 196, 197, 198, 199, 200, 201, 202, 203, 204, 205, 206, 207, 208, 209, 210, 211, 212, 213, 214, 215, 216, 217, 218, 219, 220, 221, 222, 223, 224, 225, 226, 227, 228, 229, 230, 231, 232, 233, 234, 235, 236, 237],
      "LargestImagePixelValue": [2349, 2692, 2680, 1821, 1757, 2122, 3084, 2005, 2032, 1764, 2890, 1779, 1929, 1804, 1816, 1762, 2444, 1891, 3028, 1738, 1783, 1769, 2432, 2042, 1801, 1960, 1732, 2133, 1773, 1835, 2281, 1745, 2143, 1958, 1769, 1729, 1768, 1857, 1779, 1746, 1860, 2688, 2023, 1822, 2036, 1764, 1993, 2290, 2939, 2347, 1768, 1765, 1923, 1869, 1943, 1778, 1795, 2329, 1759, 2137, 1744, 1765, 2838, 1733, 2430, 1758, 1993, 1793, 1745, 1756, 1975, 1755, 1728, 2090, 1921, 2790, 1781, 1791, 2037, 1775, 2236, 2441, 1778, 2257, 1875, 1827, 1770, 1943, 1736, 1807, 1777, 2384, 1919, 1955, 1840, 1757, 1727, 1821, 1792, 2335, 1812, 1770, 1766, 1791, 1752, 1859, 1810, 1809, 1833, 1733, 1846, 1771, 2011, 1863, 1755, 1806, 1743, 1915, 1866, 1745, 2270, 1746, 2958, 1789, 1792, 1757, 1856, 3105, 1768, 1767, 1746, 2244, 1836, 2489, 1864, 1970, 1790, 2479, 2050, 1897, 1868, 1764, 1766, 1744, 1727, 2187, 1764, 1786, 1868, 3067, 1902, 1954, 1771, 1731, 2263, 1743, 1804, 1785, 1772, 1770, 2538, 1762, 1954, 1751, 2198, 1787, 1839, 1733, 2178, 1762, 1809, 1718, 1756, 1838, 1750, 1750, 2319, 2356, 1787, 1887, 2053, 1785, 1798, 2007, 1754, 1771, 2129, 1758, 1886, 1803, 1955, 1812, 3082, 1726, 1770, 1723, 1802, 3342, 1802, 2504, 1819, 1904, 1768, 1807, 2118, 1746, 1837, 1977, 1759, 1784, 1828, 2070, 1745, 1815, 1814, 1801, 1891, 1778, 1837, 2791, 1853, 1913, 2782, 1770, 1853, 1794, 2860, 1927, 1787, 1800, 1784, 2140, 1765, 1768, 2813, 3262, 1775],
      "WindowCenter": [686.0, 686.0, 684.0, 683.0, 683.0, 684.0, 685.0, 683.0, 683.0, 682.0, 684.0, 682.0, 681.0, 682.0, 683.0, 682.0, 683.0, 682.0, 683.0, 681.0, 681.0, 682.0, 683.0, 682.0, 682.0, 682.0, 682.0, 683.0, 682.0, 682.0, 684.0, 682.0, 683.0, 682.0, 682.0, 682.0, 682.0, 683.0, 682.0, 682.0, 682.0, 684.0, 682.0, 682.0, 682.0, 683.0, 683.0, 684.0, 684.0, 683.0, 681.0, 682.0, 683.0, 682.0, 682.0, 681.0, 682.0, 683.0, 681.0, 683.0, 682.0, 681.0, 684.0, 681.0, 684.0, 682.0, 683.0, 682.0, 683.0, 683.0, 684.0, 683.0, 682.0, 683.0, 681.0, 683.0, 682.0, 681.0, 682.0, 682.0, 683.0, 683.0, 681.0, 682.0, 681.0, 682.0, 681.0, 683.0, 682.0, 683.0, 683.0, 684.0, 682.0, 681.0, 682.0, 682.0, 682.0, 682.0, 682.0, 683.0, 682.0, 682.0, 683.0, 682.0, 682.0, 682.0, 682.0, 682.0, 682.0, 681.0, 682.0, 683.0, 684.0, 682.0, 682.0, 682.0, 682.0, 683.0, 682.0, 682.0, 684.0, 681.0, 684.0, 680.0, 682.0, 681.0, 682.0, 683.0, 681.0, 682.0, 683.0, 684.0, 682.0, 684.0, 683.0, 682.0, 682.0, 683.0, 683.0, 682.0, 682.0, 680.0, 682.0, 682.0, 682.0, 683.0, 682.0, 682.0, 682.0, 684.0, 682.0, 682.0, 681.0, 681.0, 683.0, 681.0, 682.0, 682.0, 683.0, 683.0, 683.0, 682.0, 683.0, 682.0, 682.0, 681.0, 682.0, 682.0, 683.0, 682.0, 682.0, 682.0, 682.0, 682.0, 682.0, 682.0, 684.0, 683.0, 681.0, 682.0, 682.0, 682.0, 682.0, 683.0, 682.0, 683.0, 684.0, 682.0, 683.0, 682.0, 683.0, 683.0, 684.0, 682.0, 682.0, 682.0, 683.0, 684.0, 682.0, 683.0, 681.0, 682.0, 681.0, 683.0, 684.0, 683.0, 682.0, 683.0, 683.0, 683.0, 682.0, 683.0, 681.0, 682.0, 682.0, 682.0, 683.0, 683.0, 683.0, 685.0, 683.0, 683.0, 685.0, 682.0, 682.0, 683.0, 685.0, 682.0, 682.0, 682.0, 682.0, 684.0, 683.0, 682.0, 684.0, 684.0, 682.0],
      "WindowWidth": [1537.0, 1535.0, 1530.0, 1524.0, 1525.0, 1530.0, 1534.0, 1525.0, 1524.0, 1522.0, 1529.0, 1519.0, 1519.0, 1521.0, 1523.0, 1521.0, 1524.0, 1521.0, 1527.0, 1518.0, 1518.0, 1520.0, 1523.0, 1520.0, 1520.0, 1522.0, 1520.0, 1524.0, 1521.0, 1523.0, 1527.0, 1521.0, 1524.0, 1522.0, 1521.0, 1522.0, 1522.0, 1524.0, 1521.0, 1522.0, 1523.0, 1528.0, 1522.0, 1521.0, 1523.0, 1523.0, 1525.0, 1528.0, 1530.0, 1526.0, 1519.0, 1522.0, 1524.0, 1523.0, 1522.0, 1519.0, 1522.0, 1527.0, 1520.0, 1525.0, 1521.0, 1519.0, 1529.0, 1518.0, 1527.0, 1520.0, 1523.0, 1521.0, 1523.0, 1524.0, 1527.0, 1523.0, 1521.0, 1524.0, 1520.0, 1528.0, 1520.0, 1519.0, 1523.0, 1521.0, 1526.0, 1525.0, 1518.0, 1522.0, 1519.0, 1519.0, 1519.0, 1523.0, 1520.0, 1523.0, 1523.0, 1530.0, 1522.0, 1520.0, 1522.0, 1522.0, 1520.0, 1520.0, 1520.0, 1526.0, 1521.0, 1521.0, 1523.0, 1521.0, 1521.0, 1522.0, 1522.0, 1520.0, 1522.0, 1519.0, 1523.0, 1523.0, 1527.0, 1521.0, 1521.0, 1523.0, 1523.0, 1525.0, 1523.0, 1521.0, 1527.0, 1519.0, 1529.0, 1517.0, 1521.0, 1519.0, 1521.0, 1528.0, 1519.0, 1521.0, 1525.0, 1527.0, 1523.0, 1528.0, 1525.0, 1523.0, 1521.0, 1526.0, 1525.0, 1522.0, 1520.0, 1516.0, 1521.0, 1523.0, 1523.0, 1525.0, 1522.0, 1521.0, 1522.0, 1530.0, 1521.0, 1522.0, 1518.0, 1518.0, 1524.0, 1518.0, 1521.0, 1521.0, 1523.0, 1523.0, 1526.0, 1520.0, 1524.0, 1522.0, 1523.0, 1519.0, 1522.0, 1521.0, 1526.0, 1520.0, 1521.0, 1522.0, 1522.0, 1522.0, 1521.0, 1523.0, 1528.0, 1524.0, 1518.0, 1522.0, 1523.0, 1522.0, 1522.0, 1526.0, 1523.0, 1523.0, 1527.0, 1523.0, 1525.0, 1523.0, 1525.0, 1523.0, 1530.0, 1521.0, 1522.0, 1523.0, 1523.0, 1531.0, 1522.0, 1527.0, 1519.0, 1522.0, 1519.0, 1525.0, 1528.0, 1524.0, 1522.0, 1524.0, 1523.0, 1523.0, 1522.0, 1525.0, 1519.0, 1521.0, 1521.0, 1522.0, 1524.0, 1524.0, 1525.0, 1531.0, 1524.0, 1524.0, 1531.0, 1521.0, 1523.0, 1523.0, 1532.0, 1521.0, 1522.0, 1521.0, 1522.0, 1527.0, 1523.0, 1521.0, 1530.0, 1528.0, 1519.0]
    },
    "slices": {}
  }
}