{
  "AcquisitionMatrixPE": 70,
  "AcquisitionNumber": 1,
  "AcquisitionTime": "10:47:13.792500",
  "BandwidthPerPixelPhaseEncode": 38.873,
  "BaseResolution": 70,
  "BodyPartExamined": "HEAD",
  "ConsistencyInfo": "N4_VE11B_LATEST_20150530",
  "ConversionSoftware": "dcm2niix",
  "ConversionSoftwareVersion": "v1.0.20190410  GCC6.3.0",
  "DerivedVendorReportedEchoSpacing": 0.000489996,
  "DeviceSerialNumber": "66088",
  "DwellTime": 2.9e-06,
  "EchoTime": 0.03,
  "EchoTrainLength": 53,
  "EffectiveEchoSpacing": 0.000367497,
  "FlipAngle": 90,
  "ImageOrientationPatientDICOM": [0.999503, 0.0194082, 0.0248396, -0.0104672, 0.947619, -0.319231],
  "ImageType": [
    "ORIGINAL",
    "PRIMARY",
    "M",
    "ND",
    "NORM",
    "MOSAIC"
],
  "ImagingFrequency": 123.191,
  "InPlanePhaseEncodingDirectionDICOM": "COL",
  "InstitutionAddress": "Street_StreetNo_City_District_IR_ZIP",
  "InstitutionName": "NBML",
  "InstitutionalDepartmentName": "Department",
  "MRAcquisitionType": "2D",
  "MagneticFieldStrength": 3,
  "Manufacturer": "Siemens",
  "ManufacturersModelName": "Prisma",
  "Modality": "MR",
  "ParallelReductionFactorInPlane": 2,
  "PartialFourier": 1,
  "PatientPosition": "HFS",
  "PercentPhaseFOV": 100,
  "PhaseEncodingDirection": "j-",
  "PhaseEncodingSteps": 105,
  "PhaseOversampling": 0.5,
  "PhaseResolution": 1,
  "PixelBandwidth": 2465,
  "ProcedureStepDescription": "NBML_Project_P-96169-Ebrahiminiya",
  "ProtocolName": "ep2d_p2_Task_3.5_measurment:237",
  "PulseSequenceDetails": "%SiemensSeq%_ep2d_pace",
  "ReceiveCoilActiveElements": "HC1-7",
  "ReceiveCoilName": "HeadNeck_64",
  "ReconMatrixPE": 70,
  "RefLinesPE": 24,
  "RepetitionTime": 2,
  "SAR": 0.0917256,
  "ScanOptions": "FS",
  "ScanningSequence": "EP",
  "SequenceName": "_epfid2d1_70",
  "SequenceVariant": "SK_OSP",
  "SeriesDescription": "ep2d_p2_Task_3.5_measurment:237",
  "SeriesNumber": 7,
  "ShimSetting": [2604, -4452, -3250, 405, -56, 89, -80, 21],
  "SliceThickness": 3.5,
  "SliceTiming": [0.9875, 0, 1.0475, 0.0575, 1.105, 0.115, 1.1625, 0.1725, 1.2225, 0.2325, 1.28, 0.29, 1.3375, 0.3475, 1.3975, 0.4075, 1.455, 0.465, 1.5125, 0.5225, 1.57, 0.58, 1.63, 0.64, 1.6875, 0.6975, 1.745, 0.755, 1.805, 0.815, 1.8625, 0.8725, 1.92, 0.93],
  "SoftwareVersions": "syngo_MR_E11",
  "SpacingBetweenSlices": 3.85,
  "StationName": "AWP66088",
  "TaskName": "categorySelectivity",
  "TotalReadoutTime": 0.0253573,
  "TxRefAmp": 231.029,
  "dcmmeta_affine": [
    [-3.5410964488983154, -0.03708377853035927, 0.11447670310735703, 121.81100463867188],
    [-0.06876049190759659, 3.357278823852539, -1.227428913116455, -88.25314331054688],
    [0.0880032554268837, 1.1309911012649536, 3.6473021507263184, -72.62296295166016],
    [0.0, 0.0, 0.0, 1.0]
],
  "dcmmeta_reorient_transform": [
    [0.0, -1.0, 0.0, 69.0],
    [1.0, 0.0, 0.0, 0.0],
    [0.0, 0.0, 1.0, 0.0],
    [0.0, 0.0, 0.0, 1.0]
],
  "dcmmeta_shape": [70, 70, 34, 237],
  "dcmmeta_slice_dim": 2,
  "dcmmeta_version": 0.6,
  "global": {
    "const": {
      "AccessionNumber": "M.BRZ",
      "AcquisitionMatrix": [70, 0, 0, 70],
      "AngioFlag": "N",
      "BitsAllocated": 16,
      "BitsStored": 12,
      "BodyPartExamined": "HEAD",
      "Columns": 420,
      "EchoNumbers": 1,
      "EchoTime": 30.0,
      "EchoTrainLength": 53,
      "FlipAngle": 90.0,
      "HighBit": 11,
      "ImageOrientationPatient": [0.99950303379017, 0.01940820286715, 0.02483962772892, -0.0104671957802, 0.94761900618691, -0.3192313532939],
      "ImagePositionPatient": [-732.45445168951, -742.95596765175, 187.93829602974],
      "ImageType": [
        "ORIGINAL",
        "PRIMARY",
        "M",
        "ND",
        "NORM",
        "MOSAIC"
],
      "ImagedNucleus": "1H",
      "ImagingFrequency": 123.191119,
      "InPlanePhaseEncodingDirection": "COL",
      "MRAcquisitionType": "2D",
      "MagneticFieldStrength": 3.0,
      "Manufacturer": "SIEMENS",
      "ManufacturerModelName": "Prisma",
      "Modality": "MR",
      "NumberOfAverages": 1.0,
      "NumberOfPhaseEncodingSteps": 105,
      "PercentPhaseFieldOfView": 100.0,
      "PercentSampling": 100.0,
      "PerformedProcedureStepStartTime": "100253.755000",
      "PhotometricInterpretation": "MONOCHROME2",
      "PixelBandwidth": 2465.0,
      "PixelRepresentation": 0,
      "PixelSpacing": [3.542857170105, 3.542857170105],
      "ProtocolName": "ep2d_p2_Task_3.5_measurment:237",
      "RepetitionTime": 2000.0,
      "Rows": 420,
      "SAR": 0.09172556813988,
      "SamplesPerPixel": 1,
      "ScanOptions": "FS",
      "ScanningSequence": "EP",
      "SequenceName": "*epfid2d1_70",
      "SequenceVariant": [
        "SK",
        "OSP"
],
      "SeriesDescription": "ep2d_p2_Task_3.5_measurment:237",
      "SeriesNumber": 7,
      "SeriesTime": "104801.825000",
      "SliceLocation": -37.04127277755,
      "SliceThickness": 3.5,
      "SmallestImagePixelValue": 0,
      "SoftwareVersions": "syngo MR E11",
      "SpacingBetweenSlices": 3.8499999060624,
      "SpecificCharacterSet": "ISO_IR 100",
      "StudyID": "1",
      "StudyTime": "100253.679000",
      "TransmitCoilName": "Body",
      "VariableFlipAngleFlag": "N",
      "WindowCenterWidthExplanation": "Algo1",
      "dBdt": 0.0},
    "slices": {}
  },
  "time": {
    "samples": {
      "AcquisitionNumber": [1, 2, 3, 4, 5, 6, 7, 8, 9, 10, 11, 12, 13, 14, 15, 16, 17, 18, 19, 20, 21, 22, 23, 24, 25, 26, 27, 28, 29, 30, 31, 32, 33, 34, 35, 36, 37, 38, 39, 40, 41, 42, 43, 44, 45, 46, 47, 48, 49, 50, 51, 52, 53, 54, 55, 56, 57, 58, 59, 60, 61, 62, 63, 64, 65, 66, 67, 68, 69, 70, 71, 72, 73, 74, 75, 76, 77, 78, 79, 80, 81, 82, 83, 84, 85, 86, 87, 88, 89, 90, 91, 92, 93, 94, 95, 96, 97, 98, 99, 100, 101, 102, 103, 104, 105, 106, 107, 108, 109, 110, 111, 112, 113, 114, 115, 116, 117, 118, 119, 120, 121, 122, 123, 124, 125, 126, 127, 128, 129, 130, 131, 132, 133, 134, 135, 136, 137, 138, 139, 140, 141, 142, 143, 144, 145, 146, 147, 148, 149, 150, 151, 152, 153, 154, 155, 156, 157, 158, 159, 160, 161, 162, 163, 164, 165, 166, 167, 168, 169, 170, 171, 172, 173, 174, 175, 176, 177, 178, 179, 180, 181, 182, 183, 184, 185, 186, 187, 188, 189, 190, 191, 192, 193, 194, 195, 196, 197, 198, 199, 200, 201, 202, 203, 204, 205, 206, 207, 208, 209, 210, 211, 212, 213, 214, 215, 216, 217, 218, 219, 220, 221, 222, 223, 224, 225, 226, 227, 228, 229, 230, 231, 232, 233, 234, 235, 236, 237],
      "AcquisitionTime": ["104713.792500", "104715.792500", "104717.792500", "104719.792500", "104721.792500", "104723.792500", "104725.792500", "104727.792500", "104729.792500", "104731.792500", "104733.792500", "104735.792500", "104737.792500", "104739.792500", "104741.792500", "104743.792500", "104745.792500", "104747.792500", "104749.792500", "104751.792500", "104753.792500", "104755.792500", "104757.792500", "104759.792500", "104801.792500", "104803.792500", "104805.792500", "104807.792500", "104809.792500", "104811.792500", "104813.792500", "104815.792500", "104817.792500", "104819.792500", "104821.792500", "104823.792500", "104825.792500", "104827.792500", "104829.792500", "104831.792500", "104833.792500", "104835.792500", "104837.792500", "104839.792500", "104841.792500", "104843.792500", "104845.792500", "104847.792500", "104849.792500", "104851.792500", "104853.792500", "104855.792500", "104857.792500", "104859.792500", "104901.792500", "104903.792500", "104905.792500", "104907.792500", "104909.792500", "104911.792500", "104913.792500", "104915.792500", "104917.792500", "104919.792500", "104921.792500", "104923.792500", "104925.792500", "104927.792500", "104929.792500", "104931.792500", "104933.792500", "104935.792500", "104937.792500", "104939.792500", "104941.792500", "104943.792500", "104945.792500", "104947.792500", "104949.792500", "104951.792500", "104953.792500", "104955.792500", "104957.792500", "104959.792500", "105001.792500", "105003.792500", "105005.792500", "105007.792500", "105009.792500", "105011.792500", "105013.792500", "105015.792500", "105017.792500", "105019.792500", "105021.792500", "105023.792500", "105025.792500", "105027.792500", "105029.792500", "105031.792500", "105033.792500", "105035.792500", "105037.792500", "105039.792500", "105041.792500", "105043.792500", "105045.792500", "105047.792500", "105049.792500", "105051.792500", "105053.792500", "105055.792500", "105057.792500", "105059.792500", "105101.792500", "105103.792500", "105105.792500", "105107.792500", "105109.792500", "105111.792500", "105113.792500", "105115.792500", "105117.792500", "105119.792500", "105121.792500", "105123.792500", "105125.792500", "105127.792500", "105129.792500", "105131.792500", "105133.792500", "105135.792500", "105137.792500", "105139.792500", "105141.792500", "105143.792500", "105145.792500", "105147.792500", "105149.792500", "105151.792500", "105153.792500", "105155.792500", "105157.792500", "105159.792500", "105201.792500", "105203.792500", "105205.792500", "105207.792500", "105209.792500", "105211.792500", "105213.792500", "105215.792500", "105217.792500", "105219.792500", "105221.792500", "105223.792500", "105225.792500", "105227.792500", "105229.792500", "105231.792500", "105233.792500", "105235.792500", "105237.792500", "105239.792500", "105241.792500", "105243.792500", "105245.792500", "105247.792500", "105249.792500", "105251.792500", "105253.792500", "105255.792500", "105257.792500", "105259.792500", "105301.792500", "105303.792500", "105305.792500", "105307.792500", "105309.792500", "105311.792500", "105313.792500", "105315.792500", "105317.792500", "105319.792500", "105321.792500", "105323.792500", "105325.792500", "105327.792500", "105329.792500", "105331.792500", "105333.792500", "105335.792500", "105337.792500", "105339.792500", "105341.792500", "105343.792500", "105345.792500", "105347.792500", "105349.792500", "105351.792500", "105353.792500", "105355.792500", "105357.792500", "105359.792500", "105401.792500", "105403.792500", "105405.792500", "105407.792500", "105409.792500", "105411.792500", "105413.792500", "105415.792500", "105417.792500", "105419.792500", "105421.792500", "105423.792500", "105425.792500", "105427.792500", "105429.792500", "105431.792500", "105433.792500", "105435.792500", "105437.792500", "105439.792500", "105441.792500", "105443.792500", "105445.792500", "105447.792500", "105449.792500", "105451.792500", "105453.792500", "105455.792500", "105457.792500", "105459.792500", "105501.792500", "105503.792500", "105505.792500"],
      "ContentTime": ["104801.829000", "104801.832000", "104801.834000", "104801.837000", "104801.839000", "104801.842000", "104801.844000", "104801.847000", "104801.849000", "104801.851000", "104801.854000", "104801.856000", "104801.859000", "104801.861000", "104801.864000", "104801.866000", "104801.869000", "104801.872000", "104801.880000", "104801.883000", "104801.885000", "104801.888000", "104801.891000", "104801.893000", "104841.823000", "104841.826000", "104841.829000", "104841.831000", "104841.834000", "104841.836000", "104841.838000", "104841.841000", "104841.843000", "104841.846000", "104841.848000", "104841.851000", "104841.853000", "104841.855000", "104841.858000", "104841.860000", "104841.863000", "104841.865000", "104841.868000", "104841.870000", "104921.823000", "104921.826000", "104921.829000", "104921.831000", "104921.834000", "104921.836000", "104921.839000", "104921.841000", "104921.843000", "104921.846000", "104921.848000", "104921.851000", "104921.853000", "104921.856000", "104921.858000", "104921.861000", "104921.863000", "104921.866000", "104921.868000", "104921.871000", "105001.824000", "105001.827000", "105001.829000", "105001.832000", "105001.834000", "105001.837000", "105001.839000", "105001.842000", "105001.844000", "105001.847000", "105001.849000", "105001.852000", "105001.854000", "105001.857000", "105001.859000", "105001.862000", "105001.864000", "105001.867000", "105001.869000", "105001.872000", "105041.825000", "105041.828000", "105041.830000", "105041.832000", "105041.835000", "105041.837000", "105041.840000", "105041.842000", "105041.845000", "105041.847000", "105041.850000", "105041.852000", "105041.854000", "105041.857000", "105041.860000", "105041.862000", "105041.864000", "105041.867000", "105041.875000", "105041.878000", "105121.823000", "105121.873000", "105121.876000", "105121.878000", "105121.881000", "105121.884000", "105121.887000", "105121.889000", "105121.892000", "105121.894000", "105121.897000", "105121.899000", "105121.902000", "105121.915000", "105121.918000", "105121.920000", "105121.923000", "105121.925000", "105121.928000", "105121.931000", "105201.824000", "105201.827000", "105201.829000", "105201.832000", "105201.834000", "105201.837000", "105201.840000", "105201.853000", "105201.856000", "105201.858000", "105201.861000", "105201.863000", "105201.866000", "105201.869000", "105201.871000", "105201.874000", "105201.876000", "105201.879000", "105201.881000", "105201.883000", "105241.824000", "105241.827000", "105241.830000", "105241.832000", "105241.835000", "105241.838000", "105241.840000", "105241.843000", "105241.845000", "105241.848000", "105241.850000", "105241.853000", "105241.855000", "105241.858000", "105241.860000", "105241.863000", "105241.865000", "105241.868000", "105241.870000", "105241.873000", "105321.824000", "105321.826000", "105321.829000", "105321.831000", "105321.834000", "105321.836000", "105321.839000", "105321.841000", "105321.844000", "105321.846000", "105321.849000", "105321.851000", "105321.854000", "105321.856000", "105321.859000", "105321.861000", "105321.864000", "105321.866000", "105321.869000", "105321.871000", "105401.824000", "105401.878000", "105401.881000", "105401.883000", "105401.886000", "105401.888000", "105401.891000", "105401.893000", "105401.896000", "105401.898000", "105401.901000", "105401.903000", "105401.906000", "105401.908000", "105401.911000", "105401.913000", "105401.916000", "105401.922000", "105401.925000", "105401.927000", "105441.823000", "105441.827000", "105441.829000", "105441.832000", "105441.834000", "105441.836000", "105441.839000", "105441.841000", "105441.844000", "105441.846000", "105441.849000", "105441.851000", "105441.854000", "105441.856000", "105441.858000", "105441.861000", "105441.863000", "105441.866000", "105441.868000", "105441.871000", "105507.212000", "105507.215000", "105507.218000", "105507.222000", "105507.225000", "105507.228000", "105507.231000", "105507.234000", "105507.237000", "105507.241000", "105507.245000", "105507.258000", "105507.263000"],
      "InstanceCreationTime": ["104801.829000", "104801.832000", "104801.834000", "104801.837000", "104801.839000", "104801.842000", "104801.844000", "104801.847000", "104801.849000", "104801.851000", "104801.854000", "104801.856000", "104801.859000", "104801.861000", "104801.864000", "104801.866000", "104801.869000", "104801.872000", "104801.880000", "104801.883000", "104801.885000", "104801.888000", "104801.891000", "104801.893000", "104841.823000", "104841.826000", "104841.829000", "104841.831000", "104841.834000", "104841.836000", "104841.838000", "104841.841000", "104841.843000", "104841.846000", "104841.848000", "104841.851000", "104841.853000", "104841.855000", "104841.858000", "104841.860000", "104841.863000", "104841.865000", "104841.868000", "104841.870000", "104921.823000", "104921.826000", "104921.829000", "104921.831000", "104921.834000", "104921.836000", "104921.839000", "104921.841000", "104921.843000", "104921.846000", "104921.848000", "104921.851000", "104921.853000", "104921.856000", "104921.858000", "104921.861000", "104921.863000", "104921.866000", "104921.868000", "104921.871000", "105001.824000", "105001.827000", "105001.829000", "105001.832000", "105001.834000", "105001.837000", "105001.839000", "105001.842000", "105001.844000", "105001.847000", "105001.849000", "105001.852000", "105001.854000", "105001.857000", "105001.859000", "105001.862000", "105001.864000", "105001.867000", "105001.869000", "105001.872000", "105041.825000", "105041.828000", "105041.830000", "105041.832000", "105041.835000", "105041.837000", "105041.840000", "105041.842000", "105041.845000", "105041.847000", "105041.850000", "105041.852000", "105041.854000", "105041.857000", "105041.860000", "105041.862000", "105041.864000", "105041.867000", "105041.875000", "105041.878000", "105121.823000", "105121.873000", "105121.876000", "105121.878000", "105121.881000", "105121.884000", "105121.887000", "105121.889000", "105121.892000", "105121.894000", "105121.897000", "105121.899000", "105121.902000", "105121.915000", "105121.918000", "105121.920000", "105121.923000", "105121.925000", "105121.928000", "105121.931000", "105201.824000", "105201.827000", "105201.829000", "105201.832000", "105201.834000", "105201.837000", "105201.840000", "105201.853000", "105201.856000", "105201.858000", "105201.861000", "105201.863000", "105201.866000", "105201.869000", "105201.871000", "105201.874000", "105201.876000", "105201.879000", "105201.881000", "105201.883000", "105241.824000", "105241.827000", "105241.830000", "105241.832000", "105241.835000", "105241.838000", "105241.840000", "105241.843000", "105241.845000", "105241.848000", "105241.850000", "105241.853000", "105241.855000", "105241.858000", "105241.860000", "105241.863000", "105241.865000", "105241.868000", "105241.870000", "105241.873000", "105321.824000", "105321.826000", "105321.829000", "105321.831000", "105321.834000", "105321.836000", "105321.839000", "105321.841000", "105321.844000", "105321.846000", "105321.849000", "105321.851000", "105321.854000", "105321.856000", "105321.859000", "105321.861000", "105321.864000", "105321.866000", "105321.869000", "105321.871000", "105401.824000", "105401.878000", "105401.881000", "105401.883000", "105401.886000", "105401.888000", "105401.891000", "105401.893000", "105401.896000", "105401.898000", "105401.901000", "105401.903000", "105401.906000", "105401.908000", "105401.911000", "105401.913000", "105401.916000", "105401.922000", "105401.925000", "105401.927000", "105441.823000", "105441.827000", "105441.829000", "105441.832000", "105441.834000", "105441.836000", "105441.839000", "105441.841000", "105441.844000", "105441.846000", "105441.849000", "105441.851000", "105441.854000", "105441.856000", "105441.858000", "105441.861000", "105441.863000", "105441.866000", "105441.868000", "105441.871000", "105507.212000", "105507.215000", "105507.218000", "105507.222000", "105507.225000", "105507.228000", "105507.231000", "105507.234000", "105507.237000", "105507.241000", "105507.245000", "105507.258000", "105507.263000"],
      "InstanceNumber": [1, 2, 3, 4, 5, 6, 7, 8, 9, 10, 11, 12, 13, 14, 15, 16, 17, 18, 19, 20, 21, 22, 23, 24, 25, 26, 27, 28, 29, 30, 31, 32, 33, 34, 35, 36, 37, 38, 39, 40, 41, 42, 43, 44, 45, 46, 47, 48, 49, 50, 51, 52, 53, 54, 55, 56, 57, 58, 59, 60, 61, 62, 63, 64, 65, 66, 67, 68, 69, 70, 71, 72, 73, 74, 75, 76, 77, 78, 79, 80, 81, 82, 83, 84, 85, 86, 87, 88, 89, 90, 91, 92, 93, 94, 95, 96, 97, 98, 99, 100, 101, 102, 103, 104, 105, 106, 107, 108, 109, 110, 111, 112, 113, 114, 115, 116, 117, 118, 119, 120, 121, 122, 123, 124, 125, 126, 127, 128, 129, 130, 131, 132, 133, 134, 135, 136, 137, 138, 139, 140, 141, 142, 143, 144, 145, 146, 147, 148, 149, 150, 151, 152, 153, 154, 155, 156, 157, 158, 159, 160, 161, 162, 163, 164, 165, 166, 167, 168, 169, 170, 171, 172, 173, 174, 175, 176, 177, 178, 179, 180, 181, 182, 183, 184, 185, 186, 187, 188, 189, 190, 191, 192, 193, 194, 195, 196, 197, 198, 199, 200, 201, 202, 203, 204, 205, 206, 207, 208, 209, 210, 211, 212, 213, 214, 215, 216, 217, 218, 219, 220, 221, 222, 223, 224, 225, 226, 227, 228, 229, 230, 231, 232, 233, 234, 235, 236, 237],
      "LargestImagePixelValue": [2988, 2687, 1930, 1660, 1930, 1746, 1679, 1906, 2144, 2731, 1778, 2505, 2729, 2842, 2645, 1765, 1726, 2138, 1694, 2106, 2455, 1708, 2000, 2228, 1876, 1814, 2570, 1721, 1915, 2512, 1747, 2345, 2164, 1738, 1721, 2102, 1739, 2384, 2134, 1829, 1903, 1730, 1961, 2347, 1738, 2017, 2059, 1988, 2153, 1719, 1985, 1922, 1773, 2361, 1720, 2059, 1743, 1953, 1720, 1811, 2258, 1741, 2020, 1892, 1753, 2143, 1717, 1883, 1838, 1732, 1959, 1775, 1949, 1807, 2347, 1718, 1726, 1944, 2688, 1729, 1808, 2280, 2519, 1766, 1806, 2044, 1816, 1750, 1793, 2114, 1713, 2005, 1723, 1875, 3024, 1753, 1724, 1786, 1969, 1710, 1845, 2559, 1792, 1741, 2312, 1748, 1886, 1972, 1711, 1729, 1879, 2733, 1773, 1774, 1868, 1736, 1880, 2521, 1761, 1905, 1758, 1892, 2799, 2036, 1871, 1743, 1942, 1846, 1776, 1750, 2068, 1753, 1922, 3040, 1777, 1710, 1839, 1757, 2420, 1772, 2068, 1752, 1894, 1992, 1781, 1929, 2108, 1830, 2257, 1756, 1843, 1957, 1703, 1741, 1847, 1853, 1719, 2414, 1721, 1720, 1727, 2573, 1756, 2000, 2208, 1718, 1800, 2010, 1717, 2120, 1735, 2825, 1987, 1726, 1719, 1775, 1930, 2907, 2058, 1726, 1822, 1767, 1796, 1831, 3180, 1768, 1716, 1927, 1731, 1789, 2202, 1795, 1830, 2356, 1719, 2008, 1713, 1855, 1765, 1816, 1700, 1935, 1713, 1760, 1769, 1866, 1732, 2703, 1702, 1769, 1777, 1737, 1894, 2714, 2272, 1797, 1728, 2026, 1728, 2293, 2918, 1720, 1750, 1891, 1687, 2047, 2474, 2204, 1732, 1894, 1750, 1949, 2141, 1746, 1763, 1730, 2029],
      "WindowCenter": [686.0, 684.0, 681.0, 681.0, 683.0, 683.0, 683.0, 683.0, 684.0, 684.0, 682.0, 684.0, 683.0, 684.0, 682.0, 681.0, 681.0, 683.0, 682.0, 682.0, 683.0, 682.0, 683.0, 683.0, 682.0, 682.0, 684.0, 681.0, 682.0, 684.0, 682.0, 682.0, 682.0, 681.0, 681.0, 682.0, 682.0, 683.0, 682.0, 682.0, 683.0, 682.0, 683.0, 683.0, 682.0, 683.0, 682.0, 681.0, 682.0, 681.0, 682.0, 682.0, 682.0, 683.0, 681.0, 682.0, 682.0, 682.0, 682.0, 681.0, 682.0, 681.0, 682.0, 682.0, 681.0, 682.0, 681.0, 682.0, 682.0, 682.0, 683.0, 683.0, 683.0, 682.0, 684.0, 682.0, 682.0, 683.0, 684.0, 682.0, 681.0, 683.0, 683.0, 682.0, 682.0, 683.0, 682.0, 682.0, 682.0, 683.0, 683.0, 683.0, 682.0, 683.0, 684.0, 681.0, 681.0, 683.0, 683.0, 683.0, 683.0, 684.0, 682.0, 682.0, 683.0, 682.0, 681.0, 682.0, 682.0, 683.0, 682.0, 684.0, 682.0, 683.0, 683.0, 683.0, 683.0, 684.0, 683.0, 683.0, 682.0, 682.0, 684.0, 682.0, 682.0, 681.0, 683.0, 682.0, 683.0, 682.0, 683.0, 682.0, 683.0, 684.0, 682.0, 682.0, 682.0, 682.0, 684.0, 682.0, 682.0, 683.0, 683.0, 683.0, 683.0, 683.0, 683.0, 682.0, 683.0, 682.0, 681.0, 682.0, 682.0, 682.0, 682.0, 682.0, 682.0, 683.0, 682.0, 682.0, 683.0, 685.0, 682.0, 683.0, 683.0, 681.0, 682.0, 683.0, 683.0, 684.0, 683.0, 684.0, 682.0, 682.0, 682.0, 682.0, 683.0, 684.0, 682.0, 681.0, 682.0, 682.0, 682.0, 681.0, 684.0, 681.0, 681.0, 683.0, 682.0, 683.0, 684.0, 683.0, 682.0, 684.0, 682.0, 683.0, 683.0, 683.0, 683.0, 683.0, 682.0, 683.0, 681.0, 683.0, 683.0, 682.0, 683.0, 684.0, 681.0, 681.0, 683.0, 683.0, 683.0, 684.0, 683.0, 682.0, 683.0, 684.0, 683.0, 684.0, 684.0, 681.0, 682.0, 683.0, 682.0, 682.0, 684.0, 683.0, 682.0, 682.0, 682.0, 683.0, 683.0, 682.0, 682.0, 683.0, 684.0],
      "WindowWidth": [1536.0, 1528.0, 1520.0, 1520.0, 1526.0, 1523.0, 1524.0, 1527.0, 1528.0, 1530.0, 1521.0, 1527.0, 1527.0, 1528.0, 1523.0, 1517.0, 1519.0, 1526.0, 1521.0, 1523.0, 1525.0, 1522.0, 1525.0, 1527.0, 1521.0, 1522.0, 1529.0, 1520.0, 1521.0, 1529.0, 1522.0, 1523.0, 1522.0, 1519.0, 1519.0, 1522.0, 1521.0, 1526.0, 1522.0, 1521.0, 1524.0, 1523.0, 1526.0, 1526.0, 1521.0, 1525.0, 1523.0, 1520.0, 1523.0, 1519.0, 1523.0, 1522.0, 1520.0, 1525.0, 1520.0, 1523.0, 1521.0, 1521.0, 1520.0, 1518.0, 1523.0, 1518.0, 1523.0, 1521.0, 1519.0, 1523.0, 1519.0, 1522.0, 1522.0, 1522.0, 1525.0, 1524.0, 1525.0, 1523.0, 1528.0, 1521.0, 1522.0, 1526.0, 1530.0, 1521.0, 1519.0, 1525.0, 1527.0, 1520.0, 1521.0, 1525.0, 1522.0, 1521.0, 1523.0, 1525.0, 1523.0, 1526.0, 1523.0, 1524.0, 1529.0, 1519.0, 1519.0, 1523.0, 1526.0, 1523.0, 1523.0, 1528.0, 1521.0, 1520.0, 1527.0, 1520.0, 1520.0, 1523.0, 1522.0, 1523.0, 1522.0, 1530.0, 1521.0, 1523.0, 1526.0, 1525.0, 1525.0, 1528.0, 1523.0, 1525.0, 1522.0, 1523.0, 1530.0, 1523.0, 1521.0, 1520.0, 1525.0, 1523.0, 1523.0, 1523.0, 1526.0, 1523.0, 1524.0, 1531.0, 1521.0, 1520.0, 1522.0, 1522.0, 1529.0, 1521.0, 1522.0, 1523.0, 1525.0, 1526.0, 1523.0, 1525.0, 1526.0, 1521.0, 1526.0, 1521.0, 1519.0, 1521.0, 1520.0, 1521.0, 1522.0, 1521.0, 1522.0, 1526.0, 1521.0, 1522.0, 1524.0, 1531.0, 1522.0, 1523.0, 1527.0, 1520.0, 1522.0, 1525.0, 1523.0, 1529.0, 1524.0, 1528.0, 1523.0, 1522.0, 1523.0, 1520.0, 1524.0, 1529.0, 1521.0, 1518.0, 1522.0, 1521.0, 1522.0, 1519.0, 1530.0, 1517.0, 1517.0, 1523.0, 1523.0, 1525.0, 1529.0, 1524.0, 1523.0, 1528.0, 1522.0, 1524.0, 1523.0, 1525.0, 1523.0, 1523.0, 1522.0, 1524.0, 1520.0, 1523.0, 1523.0, 1523.0, 1523.0, 1528.0, 1519.0, 1520.0, 1524.0, 1524.0, 1525.0, 1530.0, 1526.0, 1521.0, 1523.0, 1528.0, 1524.0, 1527.0, 1530.0, 1519.0, 1522.0, 1525.0, 1521.0, 1523.0, 1528.0, 1524.0, 1522.0, 1523.0, 1523.0, 1524.0, 1524.0, 1520.0, 1522.0, 1524.0, 1527.0]
    },
    "slices": {}
  }
}