{
  "AcquisitionMatrixPE": 70,
  "AcquisitionNumber": 1,
  "AcquisitionTime": "12:28:27.805000",
  "BandwidthPerPixelPhaseEncode": 38.873,
  "BaseResolution": 70,
  "BodyPartExamined": "HEAD",
  "ConsistencyInfo": "N4_VE11B_LATEST_20150530",
  "ConversionSoftware": "dcm2niix",
  "ConversionSoftwareVersion": "v1.0.20190410  GCC6.3.0",
  "DerivedVendorReportedEchoSpacing": 0.000489996,
  "DeviceSerialNumber": "66088",
  "DwellTime": 2.9e-06,
  "EchoTime": 0.03,
  "EchoTrainLength": 53,
  "EffectiveEchoSpacing": 0.000367497,
  "FlipAngle": 90,
  "ImageOrientationPatientDICOM": [0.998959, 0.00229167, 0.0455677, 0.00871773, 0.97075, -0.239935],
  "ImageType": [
    "ORIGINAL",
    "PRIMARY",
    "M",
    "ND",
    "NORM",
    "MOSAIC"
],
  "ImagingFrequency": 123.191,
  "InPlanePhaseEncodingDirectionDICOM": "COL",
  "InstitutionAddress": "Street_StreetNo_City_District_IR_ZIP",
  "InstitutionName": "NBML",
  "InstitutionalDepartmentName": "Department",
  "MRAcquisitionType": "2D",
  "MagneticFieldStrength": 3,
  "Manufacturer": "Siemens",
  "ManufacturersModelName": "Prisma",
  "Modality": "MR",
  "ParallelReductionFactorInPlane": 2,
  "PartialFourier": 1,
  "PatientPosition": "HFS",
  "PercentPhaseFOV": 100,
  "PhaseEncodingDirection": "j-",
  "PhaseEncodingSteps": 105,
  "PhaseOversampling": 0.5,
  "PhaseResolution": 1,
  "PixelBandwidth": 2465,
  "ProcedureStepDescription": "NBML_Project_Dr_Khaligh",
  "ProtocolName": "ep2d_p2_Task_3.5_measurment:237",
  "PulseSequenceDetails": "%SiemensSeq%_ep2d_pace",
  "ReceiveCoilActiveElements": "HC1-7;NC1",
  "ReceiveCoilName": "HeadNeck_64",
  "ReconMatrixPE": 70,
  "RefLinesPE": 24,
  "RepetitionTime": 2,
  "SAR": 0.112212,
  "ScanOptions": "FS",
  "ScanningSequence": "EP",
  "SequenceName": "_epfid2d1_70",
  "SequenceVariant": "SK_OSP",
  "SeriesDescription": "ep2d_p2_Task_3.5_measurment:237",
  "SeriesNumber": 6,
  "ShimSetting": [2612, -4451, -3247, 401, 33, 169, 26, 72],
  "SliceThickness": 3.5,
  "SliceTiming": [0.99, 0, 1.05, 0.06, 1.1075, 0.1175, 1.165, 0.175, 1.2225, 0.235, 1.2825, 0.2925, 1.34, 0.35, 1.3975, 0.4075, 1.4575, 0.4675, 1.515, 0.525, 1.5725, 0.5825, 1.6325, 0.6425, 1.69, 0.7, 1.7475, 0.7575, 1.805, 0.815, 1.865, 0.875, 1.9225, 0.9325],
  "SoftwareVersions": "syngo_MR_E11",
  "SpacingBetweenSlices": 4.025,
  "StationName": "AWP66088",
  "TaskName": "categorySelectivity",
  "TotalReadoutTime": 0.0253573,
  "TxRefAmp": 255.594,
  "dcmmeta_affine": [
    [-3.539167642593384, 0.030885670334100723, 0.18025821447372437, 123.91281127929688],
    [-0.008119065314531326, 3.43922758102417, -0.9663327932357788, -91.01374816894531],
    [0.1614397168159485, 0.8500564694404602, 3.903118371963501, -76.14710235595703],
    [0.0, 0.0, 0.0, 1.0]
],
  "dcmmeta_reorient_transform": [
    [0.0, -1.0, 0.0, 69.0],
    [1.0, 0.0, 0.0, 0.0],
    [0.0, 0.0, 1.0, 0.0],
    [0.0, 0.0, 0.0, 1.0]
],
  "dcmmeta_shape": [70, 70, 34, 237],
  "dcmmeta_slice_dim": 2,
  "dcmmeta_version": 0.6,
  "global": {
    "const": {
      "AccessionNumber": "BRZ",
      "AcquisitionMatrix": [70, 0, 0, 70],
      "AngioFlag": "N",
      "BitsAllocated": 16,
      "BitsStored": 12,
      "BodyPartExamined": "HEAD",
      "Columns": 420,
      "EchoNumbers": 1,
      "EchoTime": 30.0,
      "EchoTrainLength": 53,
      "FlipAngle": 90.0,
      "HighBit": 11,
      "ImageOrientationPatient": [0.99895862590345, 0.00229167159358, 0.04556766369265, 0.00871772962938, 0.9707497389088, -0.2399352946079],
      "ImagePositionPatient": [-750.80326817262, -749.57864299975, 103.01472710081],
      "ImageType": [
        "ORIGINAL",
        "PRIMARY",
        "M",
        "ND",
        "NORM",
        "MOSAIC"
],
      "ImagedNucleus": "1H",
      "ImagingFrequency": 123.191145,
      "InPlanePhaseEncodingDirection": "COL",
      "MRAcquisitionType": "2D",
      "MagneticFieldStrength": 3.0,
      "Manufacturer": "SIEMENS",
      "ManufacturerModelName": "Prisma",
      "Modality": "MR",
      "NumberOfAverages": 1.0,
      "NumberOfPhaseEncodingSteps": 105,
      "PercentPhaseFieldOfView": 100.0,
      "PercentSampling": 100.0,
      "PerformedProcedureStepStartTime": "115233.371000",
      "PhotometricInterpretation": "MONOCHROME2",
      "PixelBandwidth": 2465.0,
      "PixelRepresentation": 0,
      "PixelSpacing": [3.542857170105, 3.542857170105],
      "ProtocolName": "ep2d_p2_Task_3.5_measurment:237",
      "RepetitionTime": 2000.0,
      "Rows": 420,
      "SAR": 0.11221162538318,
      "SamplesPerPixel": 1,
      "ScanOptions": "FS",
      "ScanningSequence": "EP",
      "SequenceName": "*epfid2d1_70",
      "SequenceVariant": [
        "SK",
        "OSP"
],
      "SeriesDescription": "ep2d_p2_Task_3.5_measurment:237",
      "SeriesNumber": 6,
      "SeriesTime": "122845.559000",
      "SliceLocation": -46.441064185377,
      "SliceThickness": 3.5,
      "SmallestImagePixelValue": 0,
      "SoftwareVersions": "syngo MR E11",
      "SpacingBetweenSlices": 4.0250000043262,
      "SpecificCharacterSet": "ISO_IR 100",
      "StudyID": "1",
      "StudyTime": "115233.324000",
      "TransmitCoilName": "Body",
      "VariableFlipAngleFlag": "N",
      "WindowCenterWidthExplanation": "Algo1",
      "dBdt": 0.0},
    "slices": {}
  },
  "time": {
    "samples": {
      "AcquisitionNumber": [1, 2, 3, 4, 5, 6, 7, 8, 9, 10, 11, 12, 13, 14, 15, 16, 17, 18, 19, 20, 21, 22, 23, 24, 25, 26, 27, 28, 29, 30, 31, 32, 33, 34, 35, 36, 37, 38, 39, 40, 41, 42, 43, 44, 45, 46, 47, 48, 49, 50, 51, 52, 53, 54, 55, 56, 57, 58, 59, 60, 61, 62, 63, 64, 65, 66, 67, 68, 69, 70, 71, 72, 73, 74, 75, 76, 77, 78, 79, 80, 81, 82, 83, 84, 85, 86, 87, 88, 89, 90, 91, 92, 93, 94, 95, 96, 97, 98, 99, 100, 101, 102, 103, 104, 105, 106, 107, 108, 109, 110, 111, 112, 113, 114, 115, 116, 117, 118, 119, 120, 121, 122, 123, 124, 125, 126, 127, 128, 129, 130, 131, 132, 133, 134, 135, 136, 137, 138, 139, 140, 141, 142, 143, 144, 145, 146, 147, 148, 149, 150, 151, 152, 153, 154, 155, 156, 157, 158, 159, 160, 161, 162, 163, 164, 165, 166, 167, 168, 169, 170, 171, 172, 173, 174, 175, 176, 177, 178, 179, 180, 181, 182, 183, 184, 185, 186, 187, 188, 189, 190, 191, 192, 193, 194, 195, 196, 197, 198, 199, 200, 201, 202, 203, 204, 205, 206, 207, 208, 209, 210, 211, 212, 213, 214, 215, 216, 217, 218, 219, 220, 221, 222, 223, 224, 225, 226, 227, 228, 229, 230, 231, 232, 233, 234, 235, 236, 237],
      "AcquisitionTime": ["122827.805000", "122829.805000", "122831.805000", "122833.805000", "122835.805000", "122837.805000", "122839.805000", "122841.805000", "122843.805000", "122845.805000", "122847.805000", "122849.805000", "122851.805000", "122853.805000", "122855.805000", "122857.805000", "122859.805000", "122901.805000", "122903.805000", "122905.805000", "122907.805000", "122909.805000", "122911.805000", "122913.805000", "122915.805000", "122917.805000", "122919.805000", "122921.805000", "122923.805000", "122925.805000", "122927.805000", "122929.805000", "122931.805000", "122933.805000", "122935.805000", "122937.805000", "122939.805000", "122941.805000", "122943.805000", "122945.805000", "122947.805000", "122949.805000", "122951.805000", "122953.805000", "122955.805000", "122957.805000", "122959.805000", "123001.805000", "123003.805000", "123005.805000", "123007.805000", "123009.805000", "123011.805000", "123013.805000", "123015.805000", "123017.805000", "123019.805000", "123021.805000", "123023.805000", "123025.805000", "123027.805000", "123029.805000", "123031.805000", "123033.805000", "123035.805000", "123037.805000", "123039.805000", "123041.805000", "123043.805000", "123045.805000", "123047.805000", "123049.805000", "123051.805000", "123053.805000", "123055.805000", "123057.805000", "123059.805000", "123101.805000", "123103.805000", "123105.805000", "123107.805000", "123109.805000", "123111.805000", "123113.805000", "123115.805000", "123117.805000", "123119.805000", "123121.805000", "123123.805000", "123125.805000", "123127.805000", "123129.805000", "123131.805000", "123133.805000", "123135.805000", "123137.805000", "123139.805000", "123141.805000", "123143.805000", "123145.805000", "123147.805000", "123149.805000", "123151.805000", "123153.805000", "123155.805000", "123157.805000", "123159.805000", "123201.805000", "123203.805000", "123205.805000", "123207.805000", "123209.805000", "123211.805000", "123213.805000", "123215.805000", "123217.805000", "123219.805000", "123221.805000", "123223.805000", "123225.805000", "123227.805000", "123229.805000", "123231.805000", "123233.805000", "123235.805000", "123237.805000", "123239.805000", "123241.805000", "123243.805000", "123245.805000", "123247.805000", "123249.805000", "123251.805000", "123253.805000", "123255.805000", "123257.805000", "123259.805000", "123301.805000", "123303.805000", "123305.805000", "123307.805000", "123309.805000", "123311.805000", "123313.805000", "123315.805000", "123317.805000", "123319.805000", "123321.805000", "123323.805000", "123325.805000", "123327.805000", "123329.805000", "123331.805000", "123333.805000", "123335.805000", "123337.805000", "123339.805000", "123341.805000", "123343.805000", "123345.805000", "123347.805000", "123349.805000", "123351.805000", "123353.805000", "123355.805000", "123357.805000", "123359.805000", "123401.805000", "123403.805000", "123405.805000", "123407.805000", "123409.805000", "123411.805000", "123413.805000", "123415.805000", "123417.805000", "123419.805000", "123421.805000", "123423.805000", "123425.805000", "123427.805000", "123429.805000", "123431.805000", "123433.805000", "123435.805000", "123437.805000", "123439.805000", "123441.805000", "123443.805000", "123445.805000", "123447.805000", "123449.805000", "123451.805000", "123453.805000", "123455.805000", "123457.805000", "123459.805000", "123501.805000", "123503.805000", "123505.805000", "123507.805000", "123509.805000", "123511.805000", "123513.805000", "123515.805000", "123517.805000", "123519.805000", "123521.805000", "123523.805000", "123525.805000", "123527.805000", "123529.805000", "123531.805000", "123533.805000", "123535.805000", "123537.805000", "123539.805000", "123541.805000", "123543.805000", "123545.805000", "123547.805000", "123549.805000", "123551.805000", "123553.805000", "123555.805000", "123557.805000", "123559.805000", "123601.805000", "123603.805000", "123605.805000", "123607.805000", "123609.805000", "123611.805000", "123613.805000", "123615.805000", "123617.805000", "123619.805000"],
      "ContentTime": ["122845.563000", "122845.566000", "122845.574000", "122845.577000", "122845.579000", "122845.582000", "122845.584000", "122845.586000", "122845.589000", "122925.558000", "122925.561000", "122925.564000", "122925.568000", "122925.571000", "122925.574000", "122925.577000", "122925.580000", "122925.583000", "122925.586000", "122925.590000", "122925.593000", "122925.596000", "122925.599000", "122925.602000", "122925.605000", "122925.608000", "122925.611000", "122925.614000", "122925.618000", "123005.560000", "123005.563000", "123005.566000", "123005.569000", "123005.573000", "123005.576000", "123005.581000", "123005.584000", "123005.587000", "123005.590000", "123005.593000", "123005.597000", "123005.600000", "123005.603000", "123005.606000", "123005.609000", "123005.612000", "123005.615000", "123005.618000", "123005.621000", "123045.559000", "123045.561000", "123045.564000", "123045.566000", "123045.569000", "123045.571000", "123045.574000", "123045.576000", "123045.579000", "123045.581000", "123045.584000", "123045.586000", "123045.589000", "123045.591000", "123045.593000", "123045.596000", "123045.598000", "123045.601000", "123045.603000", "123045.606000", "123125.558000", "123125.562000", "123125.565000", "123125.569000", "123125.572000", "123125.575000", "123125.578000", "123125.582000", "123125.585000", "123125.588000", "123125.591000", "123125.594000", "123125.597000", "123125.601000", "123125.604000", "123125.607000", "123125.610000", "123125.613000", "123125.616000", "123125.619000", "123205.559000", "123205.561000", "123205.564000", "123205.566000", "123205.569000", "123205.571000", "123205.574000", "123205.576000", "123205.579000", "123205.581000", "123205.583000", "123205.586000", "123205.588000", "123205.591000", "123205.594000", "123205.597000", "123205.599000", "123205.602000", "123205.604000", "123205.607000", "123245.558000", "123245.561000", "123245.564000", "123245.567000", "123245.569000", "123245.572000", "123245.574000", "123245.577000", "123245.595000", "123245.598000", "123245.600000", "123245.611000", "123245.613000", "123245.616000", "123245.618000", "123245.621000", "123245.623000", "123245.626000", "123245.628000", "123245.630000", "123325.559000", "123325.562000", "123325.564000", "123325.567000", "123325.569000", "123325.572000", "123325.574000", "123325.577000", "123325.579000", "123325.582000", "123325.584000", "123325.587000", "123325.589000", "123325.592000", "123325.594000", "123325.597000", "123325.599000", "123325.601000", "123325.604000", "123325.606000", "123405.558000", "123405.560000", "123405.563000", "123405.565000", "123405.568000", "123405.570000", "123405.572000", "123405.575000", "123405.577000", "123405.580000", "123405.582000", "123405.585000", "123405.587000", "123405.589000", "123405.592000", "123405.594000", "123405.597000", "123405.599000", "123405.602000", "123405.604000", "123445.558000", "123445.561000", "123445.564000", "123445.566000", "123445.569000", "123445.571000", "123445.573000", "123445.576000", "123445.579000", "123445.581000", "123445.583000", "123445.586000", "123445.588000", "123445.591000", "123445.593000", "123445.596000", "123445.598000", "123445.600000", "123445.603000", "123445.606000", "123525.560000", "123525.563000", "123525.566000", "123525.576000", "123525.579000", "123525.582000", "123525.585000", "123525.588000", "123525.591000", "123525.595000", "123525.598000", "123525.601000", "123525.604000", "123525.607000", "123525.610000", "123525.614000", "123525.617000", "123525.620000", "123525.623000", "123525.626000", "123605.558000", "123605.561000", "123605.564000", "123605.566000", "123605.569000", "123605.571000", "123605.574000", "123605.576000", "123605.579000", "123605.581000", "123605.583000", "123605.586000", "123605.588000", "123605.591000", "123605.593000", "123605.596000", "123605.598000", "123605.600000", "123605.603000", "123605.605000", "123621.576000", "123621.582000", "123621.585000", "123621.589000", "123621.591000", "123621.594000", "123621.598000", "123621.601000"],
      "InstanceCreationTime": ["122845.563000", "122845.566000", "122845.574000", "122845.577000", "122845.579000", "122845.582000", "122845.584000", "122845.586000", "122845.589000", "122925.558000", "122925.561000", "122925.564000", "122925.568000", "122925.571000", "122925.574000", "122925.577000", "122925.580000", "122925.583000", "122925.586000", "122925.590000", "122925.593000", "122925.596000", "122925.599000", "122925.602000", "122925.605000", "122925.608000", "122925.611000", "122925.614000", "122925.618000", "123005.560000", "123005.563000", "123005.566000", "123005.569000", "123005.573000", "123005.576000", "123005.581000", "123005.584000", "123005.587000", "123005.590000", "123005.593000", "123005.597000", "123005.600000", "123005.603000", "123005.606000", "123005.609000", "123005.612000", "123005.615000", "123005.618000", "123005.621000", "123045.559000", "123045.561000", "123045.564000", "123045.566000", "123045.569000", "123045.571000", "123045.574000", "123045.576000", "123045.579000", "123045.581000", "123045.584000", "123045.586000", "123045.589000", "123045.591000", "123045.593000", "123045.596000", "123045.598000", "123045.601000", "123045.603000", "123045.606000", "123125.558000", "123125.562000", "123125.565000", "123125.569000", "123125.572000", "123125.575000", "123125.578000", "123125.582000", "123125.585000", "123125.588000", "123125.591000", "123125.594000", "123125.597000", "123125.601000", "123125.604000", "123125.607000", "123125.610000", "123125.613000", "123125.616000", "123125.619000", "123205.559000", "123205.561000", "123205.564000", "123205.566000", "123205.569000", "123205.571000", "123205.574000", "123205.576000", "123205.579000", "123205.581000", "123205.583000", "123205.586000", "123205.588000", "123205.591000", "123205.594000", "123205.597000", "123205.599000", "123205.602000", "123205.604000", "123205.607000", "123245.558000", "123245.561000", "123245.564000", "123245.567000", "123245.569000", "123245.572000", "123245.574000", "123245.577000", "123245.595000", "123245.598000", "123245.600000", "123245.611000", "123245.613000", "123245.616000", "123245.618000", "123245.621000", "123245.623000", "123245.626000", "123245.628000", "123245.630000", "123325.559000", "123325.562000", "123325.564000", "123325.567000", "123325.569000", "123325.572000", "123325.574000", "123325.577000", "123325.579000", "123325.582000", "123325.584000", "123325.587000", "123325.589000", "123325.592000", "123325.594000", "123325.597000", "123325.599000", "123325.601000", "123325.604000", "123325.606000", "123405.558000", "123405.560000", "123405.563000", "123405.565000", "123405.568000", "123405.570000", "123405.572000", "123405.575000", "123405.577000", "123405.580000", "123405.582000", "123405.585000", "123405.587000", "123405.589000", "123405.592000", "123405.594000", "123405.597000", "123405.599000", "123405.602000", "123405.604000", "123445.558000", "123445.561000", "123445.564000", "123445.566000", "123445.569000", "123445.571000", "123445.573000", "123445.576000", "123445.579000", "123445.581000", "123445.583000", "123445.586000", "123445.588000", "123445.591000", "123445.593000", "123445.596000", "123445.598000", "123445.600000", "123445.603000", "123445.606000", "123525.560000", "123525.563000", "123525.566000", "123525.576000", "123525.579000", "123525.582000", "123525.585000", "123525.588000", "123525.591000", "123525.595000", "123525.598000", "123525.601000", "123525.604000", "123525.607000", "123525.610000", "123525.614000", "123525.617000", "123525.620000", "123525.623000", "123525.626000", "123605.558000", "123605.561000", "123605.564000", "123605.566000", "123605.569000", "123605.571000", "123605.574000", "123605.576000", "123605.579000", "123605.581000", "123605.583000", "123605.586000", "123605.588000", "123605.591000", "123605.593000", "123605.596000", "123605.598000", "123605.600000", "123605.603000", "123605.605000", "123621.576000", "123621.582000", "123621.585000", "123621.589000", "123621.591000", "123621.594000", "123621.598000", "123621.601000"],
      "InstanceNumber": [1, 2, 3, 4, 5, 6, 7, 8, 9, 10, 11, 12, 13, 14, 15, 16, 17, 18, 19, 20, 21, 22, 23, 24, 25, 26, 27, 28, 29, 30, 31, 32, 33, 34, 35, 36, 37, 38, 39, 40, 41, 42, 43, 44, 45, 46, 47, 48, 49, 50, 51, 52, 53, 54, 55, 56, 57, 58, 59, 60, 61, 62, 63, 64, 65, 66, 67, 68, 69, 70, 71, 72, 73, 74, 75, 76, 77, 78, 79, 80, 81, 82, 83, 84, 85, 86, 87, 88, 89, 90, 91, 92, 93, 94, 95, 96, 97, 98, 99, 100, 101, 102, 103, 104, 105, 106, 107, 108, 109, 110, 111, 112, 113, 114, 115, 116, 117, 118, 119, 120, 121, 122, 123, 124, 125, 126, 127, 128, 129, 130, 131, 132, 133, 134, 135, 136, 137, 138, 139, 140, 141, 142, 143, 144, 145, 146, 147, 148, 149, 150, 151, 152, 153, 154, 155, 156, 157, 158, 159, 160, 161, 162, 163, 164, 165, 166, 167, 168, 169, 170, 171, 172, 173, 174, 175, 176, 177, 178, 179, 180, 181, 182, 183, 184, 185, 186, 187, 188, 189, 190, 191, 192, 193, 194, 195, 196, 197, 198, 199, 200, 201, 202, 203, 204, 205, 206, 207, 208, 209, 210, 211, 212, 213, 214, 215, 216, 217, 218, 219, 220, 221, 222, 223, 224, 225, 226, 227, 228, 229, 230, 231, 232, 233, 234, 235, 236, 237],
      "LargestImagePixelValue": [2124, 1897, 1629, 1816, 1697, 1611, 2842, 1771, 1694, 1647, 1710, 2477, 2048, 1615, 1596, 2167, 1798, 1598, 1804, 1697, 1663, 2341, 2071, 1644, 2009, 1616, 1969, 1714, 2524, 1701, 1657, 2030, 1633, 2136, 1600, 1962, 1703, 2343, 2057, 1704, 1806, 1631, 1681, 2575, 1737, 1795, 1634, 1869, 1746, 1719, 2154, 1807, 1655, 1880, 2030, 2448, 1748, 1840, 1615, 2190, 1734, 2034, 1708, 1711, 2324, 1761, 1766, 2073, 1654, 1611, 1695, 1640, 2128, 2216, 2318, 1705, 1624, 1978, 1797, 1791, 1653, 2103, 1879, 1653, 1599, 1606, 2038, 1625, 1756, 2101, 2551, 1971, 1652, 1742, 1619, 1956, 1917, 1963, 2167, 1709, 1830, 1701, 1647, 1672, 2072, 2436, 1855, 2188, 2021, 2250, 1667, 1907, 1618, 1805, 2710, 1677, 1661, 1665, 2103, 2560, 1740, 1635, 1634, 1691, 1620, 2282, 2747, 2001, 1708, 1866, 1621, 1689, 2245, 1655, 1882, 1989, 2502, 2561, 1778, 2023, 1649, 1700, 2127, 1718, 1671, 1823, 1847, 2126, 1606, 1732, 2065, 1698, 1944, 1655, 1609, 1896, 1920, 2789, 1768, 1625, 1691, 1881, 2147, 1880, 2069, 1758, 1679, 2059, 1759, 2209, 2039, 1946, 1715, 1619, 1791, 1834, 1641, 2126, 1870, 2415, 1715, 1671, 1615, 2065, 2217, 1651, 1863, 2287, 2648, 1743, 1634, 2065, 1615, 1931, 1851, 1990, 1769, 1688, 2016, 1623, 1874, 1609, 1821, 2138, 2512, 1726, 1620, 1629, 2379, 1922, 2061, 2266, 1686, 1743, 1625, 1785, 2380, 1674, 1706, 1712, 1957, 1713, 1639, 1962, 1963, 1832, 1857, 1696, 1970, 1687, 2752, 1796, 1728, 1636, 1903, 1646, 1933],
      "WindowCenter": [681.0, 679.0, 678.0, 678.0, 678.0, 677.0, 681.0, 677.0, 676.0, 677.0, 678.0, 679.0, 676.0, 675.0, 675.0, 677.0, 677.0, 675.0, 676.0, 676.0, 676.0, 680.0, 678.0, 676.0, 677.0, 677.0, 678.0, 676.0, 678.0, 676.0, 675.0, 676.0, 676.0, 679.0, 676.0, 677.0, 677.0, 679.0, 678.0, 676.0, 676.0, 676.0, 677.0, 680.0, 677.0, 678.0, 677.0, 678.0, 677.0, 677.0, 678.0, 678.0, 677.0, 677.0, 678.0, 678.0, 675.0, 676.0, 676.0, 678.0, 677.0, 677.0, 676.0, 676.0, 678.0, 676.0, 676.0, 677.0, 674.0, 675.0, 676.0, 677.0, 679.0, 678.0, 677.0, 676.0, 676.0, 677.0, 677.0, 676.0, 675.0, 676.0, 675.0, 674.0, 675.0, 676.0, 678.0, 676.0, 678.0, 679.0, 679.0, 677.0, 676.0, 676.0, 676.0, 678.0, 678.0, 678.0, 679.0, 678.0, 679.0, 679.0, 678.0, 680.0, 683.0, 682.0, 677.0, 678.0, 678.0, 678.0, 676.0, 677.0, 677.0, 678.0, 680.0, 677.0, 676.0, 677.0, 677.0, 677.0, 675.0, 675.0, 676.0, 677.0, 678.0, 681.0, 681.0, 678.0, 676.0, 677.0, 677.0, 677.0, 678.0, 678.0, 679.0, 678.0, 678.0, 677.0, 674.0, 675.0, 673.0, 672.0, 675.0, 674.0, 675.0, 675.0, 676.0, 676.0, 676.0, 675.0, 677.0, 676.0, 677.0, 676.0, 676.0, 678.0, 678.0, 679.0, 676.0, 676.0, 677.0, 677.0, 677.0, 676.0, 677.0, 676.0, 677.0, 679.0, 678.0, 677.0, 676.0, 675.0, 675.0, 676.0, 679.0, 678.0, 675.0, 676.0, 675.0, 677.0, 675.0, 675.0, 675.0, 677.0, 678.0, 677.0, 679.0, 678.0, 678.0, 675.0, 674.0, 675.0, 672.0, 674.0, 675.0, 675.0, 675.0, 675.0, 677.0, 675.0, 676.0, 676.0, 677.0, 677.0, 678.0, 676.0, 676.0, 679.0, 680.0, 677.0, 676.0, 677.0, 674.0, 676.0, 676.0, 675.0, 678.0, 675.0, 675.0, 675.0, 677.0, 677.0, 678.0, 679.0, 678.0, 676.0, 676.0, 678.0, 680.0, 678.0, 681.0, 676.0, 676.0, 676.0, 676.0, 675.0, 678.0],
      "WindowWidth": [1476.0, 1472.0, 1468.0, 1467.0, 1468.0, 1467.0, 1477.0, 1465.0, 1464.0, 1466.0, 1467.0, 1470.0, 1463.0, 1460.0, 1460.0, 1466.0, 1466.0, 1461.0, 1464.0, 1464.0, 1463.0, 1473.0, 1468.0, 1462.0, 1466.0, 1464.0, 1468.0, 1462.0, 1467.0, 1462.0, 1461.0, 1463.0, 1462.0, 1470.0, 1464.0, 1466.0, 1466.0, 1471.0, 1469.0, 1463.0, 1462.0, 1464.0, 1466.0, 1475.0, 1466.0, 1469.0, 1466.0, 1468.0, 1467.0, 1465.0, 1469.0, 1467.0, 1466.0, 1466.0, 1467.0, 1469.0, 1462.0, 1463.0, 1463.0, 1468.0, 1465.0, 1465.0, 1462.0, 1462.0, 1468.0, 1463.0, 1464.0, 1466.0, 1459.0, 1460.0, 1463.0, 1464.0, 1470.0, 1468.0, 1467.0, 1463.0, 1463.0, 1465.0, 1467.0, 1463.0, 1460.0, 1462.0, 1459.0, 1458.0, 1460.0, 1462.0, 1469.0, 1463.0, 1467.0, 1470.0, 1472.0, 1465.0, 1462.0, 1463.0, 1462.0, 1467.0, 1468.0, 1469.0, 1471.0, 1467.0, 1471.0, 1471.0, 1469.0, 1473.0, 1481.0, 1478.0, 1467.0, 1467.0, 1467.0, 1469.0, 1463.0, 1466.0, 1466.0, 1469.0, 1474.0, 1464.0, 1463.0, 1465.0, 1466.0, 1466.0, 1459.0, 1459.0, 1462.0, 1465.0, 1469.0, 1476.0, 1475.0, 1467.0, 1463.0, 1466.0, 1464.0, 1464.0, 1468.0, 1466.0, 1470.0, 1469.0, 1469.0, 1466.0, 1457.0, 1459.0, 1455.0, 1453.0, 1460.0, 1458.0, 1459.0, 1460.0, 1463.0, 1463.0, 1462.0, 1462.0, 1465.0, 1462.0, 1466.0, 1463.0, 1464.0, 1469.0, 1466.0, 1470.0, 1461.0, 1462.0, 1466.0, 1466.0, 1466.0, 1463.0, 1466.0, 1463.0, 1464.0, 1471.0, 1466.0, 1465.0, 1462.0, 1460.0, 1460.0, 1462.0, 1471.0, 1467.0, 1460.0, 1463.0, 1460.0, 1465.0, 1460.0, 1460.0, 1460.0, 1464.0, 1467.0, 1465.0, 1471.0, 1468.0, 1468.0, 1460.0, 1456.0, 1459.0, 1453.0, 1458.0, 1459.0, 1461.0, 1461.0, 1460.0, 1465.0, 1459.0, 1462.0, 1462.0, 1464.0, 1466.0, 1468.0, 1462.0, 1464.0, 1469.0, 1474.0, 1464.0, 1462.0, 1465.0, 1458.0, 1462.0, 1461.0, 1461.0, 1467.0, 1460.0, 1461.0, 1461.0, 1466.0, 1465.0, 1467.0, 1470.0, 1467.0, 1462.0, 1463.0, 1468.0, 1473.0, 1468.0, 1475.0, 1463.0, 1463.0, 1462.0, 1463.0, 1461.0, 1467.0]
    },
    "slices": {}
  }
}