{
  "AcquisitionMatrixPE": 70,
  "AcquisitionNumber": 1,
  "AcquisitionTime": "12:47:21.500000",
  "BandwidthPerPixelPhaseEncode": 38.873,
  "BaseResolution": 70,
  "BodyPartExamined": "HEAD",
  "ConsistencyInfo": "N4_VE11B_LATEST_20150530",
  "ConversionSoftware": "dcm2niix",
  "ConversionSoftwareVersion": "v1.0.20190410  GCC6.3.0",
  "DerivedVendorReportedEchoSpacing": 0.000489996,
  "DeviceSerialNumber": "66088",
  "DwellTime": 2.9e-06,
  "EchoTime": 0.03,
  "EchoTrainLength": 53,
  "EffectiveEchoSpacing": 0.000367497,
  "FlipAngle": 90,
  "ImageOrientationPatientDICOM": [0.998959, 0.00229167, 0.0455677, 0.00871773, 0.97075, -0.239935],
  "ImageType": [
    "ORIGINAL",
    "PRIMARY",
    "M",
    "ND",
    "NORM",
    "MOSAIC"
],
  "ImagingFrequency": 123.191,
  "InPlanePhaseEncodingDirectionDICOM": "COL",
  "InstitutionAddress": "Street_StreetNo_City_District_IR_ZIP",
  "InstitutionName": "NBML",
  "InstitutionalDepartmentName": "Department",
  "MRAcquisitionType": "2D",
  "MagneticFieldStrength": 3,
  "Manufacturer": "Siemens",
  "ManufacturersModelName": "Prisma",
  "Modality": "MR",
  "ParallelReductionFactorInPlane": 2,
  "PartialFourier": 1,
  "PatientPosition": "HFS",
  "PercentPhaseFOV": 100,
  "PhaseEncodingDirection": "j-",
  "PhaseEncodingSteps": 105,
  "PhaseOversampling": 0.5,
  "PhaseResolution": 1,
  "PixelBandwidth": 2465,
  "ProcedureStepDescription": "NBML_Project_Dr_Khaligh",
  "ProtocolName": "ep2d_p2_Task_3.5_measurment:237",
  "PulseSequenceDetails": "%SiemensSeq%_ep2d_pace",
  "ReceiveCoilActiveElements": "HC1-7;NC1",
  "ReceiveCoilName": "HeadNeck_64",
  "ReconMatrixPE": 70,
  "RefLinesPE": 24,
  "RepetitionTime": 2,
  "SAR": 0.112212,
  "ScanOptions": "FS",
  "ScanningSequence": "EP",
  "SequenceName": "_epfid2d1_70",
  "SequenceVariant": "SK_OSP",
  "SeriesDescription": "ep2d_p2_Task_3.5_measurment:237",
  "SeriesNumber": 8,
  "ShimSetting": [2612, -4451, -3247, 401, 33, 169, 26, 72],
  "SliceThickness": 3.5,
  "SliceTiming": [0.99, 0, 1.0475, 0.0575, 1.105, 0.115, 1.1625, 0.175, 1.2225, 0.2325, 1.28, 0.29, 1.3375, 0.3475, 1.3975, 0.4075, 1.455, 0.465, 1.5125, 0.5225, 1.5725, 0.5825, 1.63, 0.64, 1.6875, 0.6975, 1.745, 0.755, 1.805, 0.815, 1.8625, 0.8725, 1.92, 0.93],
  "SoftwareVersions": "syngo_MR_E11",
  "SpacingBetweenSlices": 4.025,
  "StationName": "AWP66088",
  "TaskName": "categorySelectivity",
  "TotalReadoutTime": 0.0253573,
  "TxRefAmp": 255.594,
  "dcmmeta_affine": [
    [-3.539167642593384, 0.030885670334100723, 0.18025821447372437, 123.91281127929688],
    [-0.008119065314531326, 3.43922758102417, -0.9663327932357788, -91.01374816894531],
    [0.1614397168159485, 0.8500564694404602, 3.903118371963501, -76.14710235595703],
    [0.0, 0.0, 0.0, 1.0]
],
  "dcmmeta_reorient_transform": [
    [0.0, -1.0, 0.0, 69.0],
    [1.0, 0.0, 0.0, 0.0],
    [0.0, 0.0, 1.0, 0.0],
    [0.0, 0.0, 0.0, 1.0]
],
  "dcmmeta_shape": [70, 70, 34, 237],
  "dcmmeta_slice_dim": 2,
  "dcmmeta_version": 0.6,
  "global": {
    "const": {
      "AccessionNumber": "BRZ",
      "AcquisitionMatrix": [70, 0, 0, 70],
      "AngioFlag": "N",
      "BitsAllocated": 16,
      "BitsStored": 12,
      "BodyPartExamined": "HEAD",
      "Columns": 420,
      "EchoNumbers": 1,
      "EchoTime": 30.0,
      "EchoTrainLength": 53,
      "FlipAngle": 90.0,
      "HighBit": 11,
      "ImageOrientationPatient": [0.99895862590345, 0.00229167159358, 0.04556766369265, 0.00871772962938, 0.9707497389088, -0.2399352946079],
      "ImagePositionPatient": [-750.80326817262, -749.57864299975, 103.01472710081],
      "ImageType": [
        "ORIGINAL",
        "PRIMARY",
        "M",
        "ND",
        "NORM",
        "MOSAIC"
],
      "ImagedNucleus": "1H",
      "ImagingFrequency": 123.191145,
      "InPlanePhaseEncodingDirection": "COL",
      "MRAcquisitionType": "2D",
      "MagneticFieldStrength": 3.0,
      "Manufacturer": "SIEMENS",
      "ManufacturerModelName": "Prisma",
      "Modality": "MR",
      "NumberOfAverages": 1.0,
      "NumberOfPhaseEncodingSteps": 105,
      "PercentPhaseFieldOfView": 100.0,
      "PercentSampling": 100.0,
      "PerformedProcedureStepStartTime": "115233.371000",
      "PhotometricInterpretation": "MONOCHROME2",
      "PixelBandwidth": 2465.0,
      "PixelRepresentation": 0,
      "PixelSpacing": [3.542857170105, 3.542857170105],
      "ProtocolName": "ep2d_p2_Task_3.5_measurment:237",
      "RepetitionTime": 2000.0,
      "Rows": 420,
      "SAR": 0.11221162538318,
      "SamplesPerPixel": 1,
      "ScanOptions": "FS",
      "ScanningSequence": "EP",
      "SequenceName": "*epfid2d1_70",
      "SequenceVariant": [
        "SK",
        "OSP"
],
      "SeriesDescription": "ep2d_p2_Task_3.5_measurment:237",
      "SeriesNumber": 8,
      "SeriesTime": "124808.566000",
      "SliceLocation": -46.441064185377,
      "SliceThickness": 3.5,
      "SmallestImagePixelValue": 0,
      "SoftwareVersions": "syngo MR E11",
      "SpacingBetweenSlices": 4.0250000043262,
      "SpecificCharacterSet": "ISO_IR 100",
      "StudyID": "1",
      "StudyTime": "115233.324000",
      "TransmitCoilName": "Body",
      "VariableFlipAngleFlag": "N",
      "WindowCenterWidthExplanation": "Algo1",
      "dBdt": 0.0},
    "slices": {}
  },
  "time": {
    "samples": {
      "AcquisitionNumber": [1, 2, 3, 4, 5, 6, 7, 8, 9, 10, 11, 12, 13, 14, 15, 16, 17, 18, 19, 20, 21, 22, 23, 24, 25, 26, 27, 28, 29, 30, 31, 32, 33, 34, 35, 36, 37, 38, 39, 40, 41, 42, 43, 44, 45, 46, 47, 48, 49, 50, 51, 52, 53, 54, 55, 56, 57, 58, 59, 60, 61, 62, 63, 64, 65, 66, 67, 68, 69, 70, 71, 72, 73, 74, 75, 76, 77, 78, 79, 80, 81, 82, 83, 84, 85, 86, 87, 88, 89, 90, 91, 92, 93, 94, 95, 96, 97, 98, 99, 100, 101, 102, 103, 104, 105, 106, 107, 108, 109, 110, 111, 112, 113, 114, 115, 116, 117, 118, 119, 120, 121, 122, 123, 124, 125, 126, 127, 128, 129, 130, 131, 132, 133, 134, 135, 136, 137, 138, 139, 140, 141, 142, 143, 144, 145, 146, 147, 148, 149, 150, 151, 152, 153, 154, 155, 156, 157, 158, 159, 160, 161, 162, 163, 164, 165, 166, 167, 168, 169, 170, 171, 172, 173, 174, 175, 176, 177, 178, 179, 180, 181, 182, 183, 184, 185, 186, 187, 188, 189, 190, 191, 192, 193, 194, 195, 196, 197, 198, 199, 200, 201, 202, 203, 204, 205, 206, 207, 208, 209, 210, 211, 212, 213, 214, 215, 216, 217, 218, 219, 220, 221, 222, 223, 224, 225, 226, 227, 228, 229, 230, 231, 232, 233, 234, 235, 236, 237],
      "AcquisitionTime": ["124721.500000", "124723.500000", "124725.500000", "124727.500000", "124729.500000", "124731.500000", "124733.500000", "124735.500000", "124737.500000", "124739.500000", "124741.500000", "124743.500000", "124745.500000", "124747.500000", "124749.500000", "124751.500000", "124753.500000", "124755.500000", "124757.500000", "124759.500000", "124801.500000", "124803.500000", "124805.500000", "124807.500000", "124809.500000", "124811.500000", "124813.500000", "124815.500000", "124817.500000", "124819.500000", "124821.500000", "124823.500000", "124825.500000", "124827.500000", "124829.500000", "124831.500000", "124833.500000", "124835.500000", "124837.500000", "124839.500000", "124841.500000", "124843.500000", "124845.500000", "124847.500000", "124849.500000", "124851.500000", "124853.500000", "124855.500000", "124857.500000", "124859.500000", "124901.500000", "124903.500000", "124905.500000", "124907.500000", "124909.500000", "124911.500000", "124913.500000", "124915.500000", "124917.500000", "124919.500000", "124921.500000", "124923.500000", "124925.500000", "124927.500000", "124929.500000", "124931.500000", "124933.500000", "124935.500000", "124937.500000", "124939.500000", "124941.500000", "124943.500000", "124945.500000", "124947.500000", "124949.500000", "124951.500000", "124953.500000", "124955.500000", "124957.500000", "124959.500000", "125001.500000", "125003.500000", "125005.500000", "125007.500000", "125009.500000", "125011.500000", "125013.500000", "125015.500000", "125017.500000", "125019.500000", "125021.500000", "125023.500000", "125025.500000", "125027.500000", "125029.500000", "125031.500000", "125033.500000", "125035.500000", "125037.500000", "125039.500000", "125041.500000", "125043.500000", "125045.500000", "125047.500000", "125049.500000", "125051.500000", "125053.500000", "125055.500000", "125057.500000", "125059.500000", "125101.500000", "125103.500000", "125105.500000", "125107.500000", "125109.500000", "125111.500000", "125113.500000", "125115.500000", "125117.500000", "125119.500000", "125121.500000", "125123.500000", "125125.500000", "125127.500000", "125129.500000", "125131.500000", "125133.500000", "125135.500000", "125137.500000", "125139.500000", "125141.500000", "125143.500000", "125145.500000", "125147.500000", "125149.500000", "125151.500000", "125153.500000", "125155.500000", "125157.500000", "125159.500000", "125201.500000", "125203.500000", "125205.500000", "125207.500000", "125209.500000", "125211.500000", "125213.500000", "125215.500000", "125217.500000", "125219.500000", "125221.500000", "125223.500000", "125225.500000", "125227.500000", "125229.500000", "125231.500000", "125233.500000", "125235.500000", "125237.500000", "125239.500000", "125241.500000", "125243.500000", "125245.500000", "125247.500000", "125249.500000", "125251.500000", "125253.500000", "125255.500000", "125257.500000", "125259.500000", "125301.500000", "125303.500000", "125305.500000", "125307.500000", "125309.500000", "125311.500000", "125313.500000", "125315.500000", "125317.500000", "125319.500000", "125321.500000", "125323.500000", "125325.500000", "125327.500000", "125329.500000", "125331.500000", "125333.500000", "125335.500000", "125337.500000", "125339.500000", "125341.500000", "125343.500000", "125345.500000", "125347.500000", "125349.500000", "125351.500000", "125353.500000", "125355.500000", "125357.500000", "125359.500000", "125401.500000", "125403.500000", "125405.500000", "125407.500000", "125409.500000", "125411.500000", "125413.500000", "125415.500000", "125417.500000", "125419.500000", "125421.500000", "125423.500000", "125425.500000", "125427.500000", "125429.500000", "125431.500000", "125433.500000", "125435.500000", "125437.500000", "125439.500000", "125441.500000", "125443.500000", "125445.500000", "125447.500000", "125449.500000", "125451.500000", "125453.500000", "125455.500000", "125457.500000", "125459.500000", "125501.500000", "125503.500000", "125505.500000", "125507.500000", "125509.500000", "125511.500000", "125513.500000"],
      "ContentTime": ["124808.570000", "124808.576000", "124808.588000", "124808.592000", "124808.595000", "124808.598000", "124808.602000", "124808.605000", "124808.608000", "124808.611000", "124808.615000", "124808.618000", "124808.621000", "124808.625000", "124808.628000", "124808.631000", "124808.634000", "124808.637000", "124808.645000", "124808.648000", "124808.652000", "124808.655000", "124808.658000", "124848.564000", "124848.568000", "124848.571000", "124848.574000", "124848.577000", "124848.580000", "124848.583000", "124848.586000", "124848.590000", "124848.593000", "124848.596000", "124848.599000", "124848.602000", "124848.606000", "124848.609000", "124848.612000", "124848.615000", "124848.618000", "124848.622000", "124848.625000", "124928.563000", "124928.565000", "124928.568000", "124928.570000", "124928.573000", "124928.575000", "124928.578000", "124928.580000", "124928.582000", "124928.585000", "124928.587000", "124928.590000", "124928.592000", "124928.594000", "124928.597000", "124928.599000", "124928.602000", "124928.604000", "124928.607000", "124928.609000", "125008.563000", "125008.566000", "125008.569000", "125008.571000", "125008.574000", "125008.576000", "125008.579000", "125008.581000", "125008.584000", "125008.586000", "125008.589000", "125008.591000", "125008.593000", "125008.596000", "125008.598000", "125008.601000", "125008.603000", "125008.605000", "125008.608000", "125008.610000", "125048.564000", "125048.567000", "125048.570000", "125048.574000", "125048.577000", "125048.580000", "125048.583000", "125048.586000", "125048.589000", "125048.601000", "125048.605000", "125048.608000", "125048.611000", "125048.614000", "125048.617000", "125048.621000", "125048.624000", "125048.627000", "125048.630000", "125048.633000", "125128.563000", "125128.567000", "125128.570000", "125128.573000", "125128.576000", "125128.579000", "125128.583000", "125128.586000", "125128.589000", "125128.592000", "125128.595000", "125128.598000", "125128.601000", "125128.604000", "125128.608000", "125128.611000", "125128.614000", "125128.617000", "125128.620000", "125128.624000", "125208.563000", "125208.566000", "125208.570000", "125208.573000", "125208.576000", "125208.579000", "125208.582000", "125208.586000", "125208.589000", "125208.592000", "125208.595000", "125208.598000", "125208.601000", "125208.604000", "125208.608000", "125208.611000", "125208.614000", "125208.617000", "125208.621000", "125208.624000", "125248.564000", "125248.567000", "125248.571000", "125248.574000", "125248.577000", "125248.580000", "125248.584000", "125248.587000", "125248.590000", "125248.593000", "125248.596000", "125248.600000", "125248.603000", "125248.606000", "125248.609000", "125248.613000", "125248.616000", "125248.619000", "125248.622000", "125248.625000", "125328.564000", "125328.568000", "125328.572000", "125328.575000", "125328.578000", "125328.581000", "125328.584000", "125328.588000", "125328.591000", "125328.594000", "125328.597000", "125328.600000", "125328.603000", "125328.607000", "125328.610000", "125328.613000", "125328.617000", "125328.620000", "125328.623000", "125328.626000", "125408.563000", "125408.567000", "125408.570000", "125408.573000", "125408.577000", "125408.580000", "125408.583000", "125408.586000", "125408.589000", "125408.592000", "125408.596000", "125408.599000", "125408.602000", "125408.606000", "125408.609000", "125408.612000", "125408.615000", "125408.618000", "125408.622000", "125408.625000", "125448.564000", "125448.568000", "125448.571000", "125448.574000", "125448.577000", "125448.581000", "125448.584000", "125448.587000", "125448.590000", "125448.593000", "125448.596000", "125448.600000", "125448.603000", "125448.606000", "125448.609000", "125448.612000", "125448.616000", "125448.619000", "125448.622000", "125448.625000", "125514.892000", "125514.896000", "125514.900000", "125514.903000", "125514.906000", "125514.910000", "125514.914000", "125514.916000", "125514.919000", "125514.922000", "125514.926000", "125514.930000", "125514.944000", "125514.956000"],
      "InstanceCreationTime": ["124808.570000", "124808.576000", "124808.588000", "124808.592000", "124808.595000", "124808.598000", "124808.602000", "124808.605000", "124808.608000", "124808.611000", "124808.615000", "124808.618000", "124808.621000", "124808.625000", "124808.628000", "124808.631000", "124808.634000", "124808.637000", "124808.645000", "124808.648000", "124808.652000", "124808.655000", "124808.658000", "124848.564000", "124848.568000", "124848.571000", "124848.574000", "124848.577000", "124848.580000", "124848.583000", "124848.586000", "124848.590000", "124848.593000", "124848.596000", "124848.599000", "124848.602000", "124848.606000", "124848.609000", "124848.612000", "124848.615000", "124848.618000", "124848.622000", "124848.625000", "124928.563000", "124928.565000", "124928.568000", "124928.570000", "124928.573000", "124928.575000", "124928.578000", "124928.580000", "124928.582000", "124928.585000", "124928.587000", "124928.590000", "124928.592000", "124928.594000", "124928.597000", "124928.599000", "124928.602000", "124928.604000", "124928.607000", "124928.609000", "125008.563000", "125008.566000", "125008.569000", "125008.571000", "125008.574000", "125008.576000", "125008.579000", "125008.581000", "125008.584000", "125008.586000", "125008.589000", "125008.591000", "125008.593000", "125008.596000", "125008.598000", "125008.601000", "125008.603000", "125008.605000", "125008.608000", "125008.610000", "125048.564000", "125048.567000", "125048.570000", "125048.574000", "125048.577000", "125048.580000", "125048.583000", "125048.586000", "125048.589000", "125048.601000", "125048.605000", "125048.608000", "125048.611000", "125048.614000", "125048.617000", "125048.621000", "125048.624000", "125048.627000", "125048.630000", "125048.633000", "125128.563000", "125128.567000", "125128.570000", "125128.573000", "125128.576000", "125128.579000", "125128.583000", "125128.586000", "125128.589000", "125128.592000", "125128.595000", "125128.598000", "125128.601000", "125128.604000", "125128.608000", "125128.611000", "125128.614000", "125128.617000", "125128.620000", "125128.624000", "125208.563000", "125208.566000", "125208.570000", "125208.573000", "125208.576000", "125208.579000", "125208.582000", "125208.586000", "125208.589000", "125208.592000", "125208.595000", "125208.598000", "125208.601000", "125208.604000", "125208.608000", "125208.611000", "125208.614000", "125208.617000", "125208.621000", "125208.624000", "125248.564000", "125248.567000", "125248.571000", "125248.574000", "125248.577000", "125248.580000", "125248.584000", "125248.587000", "125248.590000", "125248.593000", "125248.596000", "125248.600000", "125248.603000", "125248.606000", "125248.609000", "125248.613000", "125248.616000", "125248.619000", "125248.622000", "125248.625000", "125328.564000", "125328.568000", "125328.572000", "125328.575000", "125328.578000", "125328.581000", "125328.584000", "125328.588000", "125328.591000", "125328.594000", "125328.597000", "125328.600000", "125328.603000", "125328.607000", "125328.610000", "125328.613000", "125328.617000", "125328.620000", "125328.623000", "125328.626000", "125408.563000", "125408.567000", "125408.570000", "125408.573000", "125408.577000", "125408.580000", "125408.583000", "125408.586000", "125408.589000", "125408.592000", "125408.596000", "125408.599000", "125408.602000", "125408.606000", "125408.609000", "125408.612000", "125408.615000", "125408.618000", "125408.622000", "125408.625000", "125448.564000", "125448.568000", "125448.571000", "125448.574000", "125448.577000", "125448.581000", "125448.584000", "125448.587000", "125448.590000", "125448.593000", "125448.596000", "125448.600000", "125448.603000", "125448.606000", "125448.609000", "125448.612000", "125448.616000", "125448.619000", "125448.622000", "125448.625000", "125514.892000", "125514.896000", "125514.900000", "125514.903000", "125514.906000", "125514.910000", "125514.914000", "125514.916000", "125514.919000", "125514.922000", "125514.926000", "125514.930000", "125514.944000", "125514.956000"],
      "InstanceNumber": [1, 2, 3, 4, 5, 6, 7, 8, 9, 10, 11, 12, 13, 14, 15, 16, 17, 18, 19, 20, 21, 22, 23, 24, 25, 26, 27, 28, 29, 30, 31, 32, 33, 34, 35, 36, 37, 38, 39, 40, 41, 42, 43, 44, 45, 46, 47, 48, 49, 50, 51, 52, 53, 54, 55, 56, 57, 58, 59, 60, 61, 62, 63, 64, 65, 66, 67, 68, 69, 70, 71, 72, 73, 74, 75, 76, 77, 78, 79, 80, 81, 82, 83, 84, 85, 86, 87, 88, 89, 90, 91, 92, 93, 94, 95, 96, 97, 98, 99, 100, 101, 102, 103, 104, 105, 106, 107, 108, 109, 110, 111, 112, 113, 114, 115, 116, 117, 118, 119, 120, 121, 122, 123, 124, 125, 126, 127, 128, 129, 130, 131, 132, 133, 134, 135, 136, 137, 138, 139, 140, 141, 142, 143, 144, 145, 146, 147, 148, 149, 150, 151, 152, 153, 154, 155, 156, 157, 158, 159, 160, 161, 162, 163, 164, 165, 166, 167, 168, 169, 170, 171, 172, 173, 174, 175, 176, 177, 178, 179, 180, 181, 182, 183, 184, 185, 186, 187, 188, 189, 190, 191, 192, 193, 194, 195, 196, 197, 198, 199, 200, 201, 202, 203, 204, 205, 206, 207, 208, 209, 210, 211, 212, 213, 214, 215, 216, 217, 218, 219, 220, 221, 222, 223, 224, 225, 226, 227, 228, 229, 230, 231, 232, 233, 234, 235, 236, 237],
      "LargestImagePixelValue": [2118, 1680, 1943, 2281, 1708, 2462, 1750, 1966, 1685, 1935, 2454, 1712, 1719, 1675, 1666, 1848, 2347, 1677, 1750, 1677, 1804, 1917, 2587, 1733, 1780, 1698, 1741, 1901, 2053, 1668, 1805, 1755, 1688, 1875, 2730, 1664, 1857, 1645, 2144, 1688, 1802, 2254, 1978, 2109, 1752, 1670, 1935, 1737, 2318, 1761, 1981, 1778, 1775, 1846, 2712, 1610, 2101, 2411, 1635, 1841, 2519, 1731, 1654, 1666, 2380, 1886, 1753, 1621, 2091, 1679, 1647, 1776, 2089, 2064, 1662, 1625, 1638, 1922, 1640, 1915, 2857, 1976, 1670, 1698, 2316, 1793, 1638, 1771, 1738, 1744, 2462, 1655, 2132, 2338, 1652, 2313, 2128, 1757, 2091, 1661, 1953, 2682, 1855, 2811, 2068, 1758, 1807, 1633, 1991, 1625, 1872, 1627, 2712, 1896, 1742, 1661, 2024, 2736, 1677, 1803, 1735, 2351, 1957, 1913, 1769, 1660, 1652, 1716, 2201, 2821, 1724, 1682, 1923, 1634, 2594, 1743, 1692, 1768, 2561, 1852, 1817, 1680, 1918, 2236, 1684, 1701, 2412, 1773, 1673, 1682, 1647, 1694, 2091, 1858, 1953, 1771, 1716, 1642, 2127, 1667, 1860, 1688, 1873, 1683, 1898, 2219, 1650, 1714, 1868, 1678, 1831, 1990, 1672, 1645, 1653, 1792, 2819, 1699, 1640, 2156, 1761, 1878, 1973, 2320, 1762, 1730, 1764, 1847, 1897, 2170, 1671, 1724, 2050, 2185, 1802, 1729, 1785, 1915, 1650, 2159, 1678, 2148, 1639, 1784, 2478, 2023, 1664, 2168, 1673, 1851, 1657, 1708, 1899, 2569, 1916, 2064, 1805, 1653, 1909, 2100, 2643, 1797, 1743, 2256, 1849, 2229, 1706, 1766, 2347, 1698, 1847, 1777, 1662, 1878, 1677, 1816, 2809],
      "WindowCenter": [683.0, 681.0, 680.0, 681.0, 678.0, 681.0, 679.0, 679.0, 677.0, 678.0, 680.0, 677.0, 677.0, 677.0, 678.0, 680.0, 681.0, 678.0, 679.0, 680.0, 681.0, 682.0, 682.0, 679.0, 680.0, 679.0, 680.0, 680.0, 681.0, 679.0, 678.0, 679.0, 679.0, 680.0, 682.0, 678.0, 679.0, 678.0, 681.0, 678.0, 679.0, 680.0, 679.0, 679.0, 677.0, 677.0, 679.0, 679.0, 681.0, 678.0, 679.0, 678.0, 677.0, 679.0, 681.0, 679.0, 681.0, 680.0, 677.0, 676.0, 678.0, 676.0, 676.0, 676.0, 679.0, 678.0, 677.0, 677.0, 680.0, 678.0, 678.0, 679.0, 681.0, 680.0, 678.0, 679.0, 681.0, 681.0, 681.0, 682.0, 682.0, 679.0, 678.0, 681.0, 682.0, 679.0, 679.0, 681.0, 681.0, 681.0, 683.0, 680.0, 682.0, 681.0, 680.0, 681.0, 680.0, 679.0, 680.0, 680.0, 681.0, 682.0, 679.0, 680.0, 677.0, 676.0, 677.0, 677.0, 679.0, 679.0, 679.0, 679.0, 683.0, 680.0, 679.0, 679.0, 680.0, 681.0, 677.0, 679.0, 680.0, 680.0, 678.0, 679.0, 678.0, 678.0, 678.0, 680.0, 681.0, 679.0, 677.0, 678.0, 679.0, 677.0, 680.0, 677.0, 679.0, 680.0, 682.0, 680.0, 678.0, 679.0, 680.0, 680.0, 679.0, 680.0, 682.0, 680.0, 680.0, 680.0, 681.0, 681.0, 682.0, 682.0, 681.0, 680.0, 680.0, 681.0, 682.0, 679.0, 680.0, 679.0, 680.0, 679.0, 681.0, 682.0, 679.0, 679.0, 681.0, 679.0, 679.0, 680.0, 678.0, 678.0, 680.0, 681.0, 683.0, 678.0, 678.0, 680.0, 679.0, 681.0, 681.0, 682.0, 681.0, 680.0, 680.0, 681.0, 681.0, 681.0, 678.0, 678.0, 679.0, 679.0, 679.0, 679.0, 680.0, 680.0, 678.0, 680.0, 679.0, 679.0, 679.0, 681.0, 683.0, 680.0, 677.0, 682.0, 679.0, 680.0, 679.0, 680.0, 681.0, 684.0, 680.0, 681.0, 680.0, 681.0, 683.0, 682.0, 683.0, 680.0, 680.0, 683.0, 680.0, 680.0, 679.0, 680.0, 681.0, 679.0, 680.0, 679.0, 680.0, 681.0, 682.0, 681.0, 683.0],
      "WindowWidth": [1481.0, 1475.0, 1473.0, 1475.0, 1469.0, 1477.0, 1471.0, 1470.0, 1466.0, 1469.0, 1472.0, 1465.0, 1465.0, 1466.0, 1468.0, 1473.0, 1477.0, 1469.0, 1470.0, 1473.0, 1477.0, 1477.0, 1479.0, 1471.0, 1473.0, 1471.0, 1473.0, 1475.0, 1475.0, 1470.0, 1468.0, 1471.0, 1471.0, 1474.0, 1479.0, 1468.0, 1470.0, 1470.0, 1475.0, 1468.0, 1471.0, 1474.0, 1470.0, 1471.0, 1467.0, 1466.0, 1471.0, 1472.0, 1476.0, 1468.0, 1470.0, 1469.0, 1467.0, 1470.0, 1477.0, 1471.0, 1476.0, 1473.0, 1465.0, 1464.0, 1469.0, 1463.0, 1462.0, 1462.0, 1472.0, 1468.0, 1466.0, 1466.0, 1473.0, 1468.0, 1468.0, 1470.0, 1475.0, 1473.0, 1468.0, 1471.0, 1476.0, 1477.0, 1477.0, 1478.0, 1479.0, 1471.0, 1470.0, 1476.0, 1479.0, 1471.0, 1471.0, 1476.0, 1476.0, 1476.0, 1480.0, 1474.0, 1478.0, 1476.0, 1473.0, 1477.0, 1475.0, 1470.0, 1474.0, 1474.0, 1477.0, 1478.0, 1471.0, 1475.0, 1466.0, 1464.0, 1465.0, 1466.0, 1471.0, 1470.0, 1472.0, 1471.0, 1481.0, 1472.0, 1470.0, 1471.0, 1473.0, 1476.0, 1466.0, 1470.0, 1473.0, 1475.0, 1468.0, 1469.0, 1468.0, 1467.0, 1469.0, 1472.0, 1476.0, 1472.0, 1466.0, 1468.0, 1471.0, 1467.0, 1473.0, 1465.0, 1471.0, 1474.0, 1478.0, 1472.0, 1469.0, 1472.0, 1474.0, 1473.0, 1470.0, 1474.0, 1480.0, 1473.0, 1473.0, 1473.0, 1475.0, 1477.0, 1479.0, 1478.0, 1477.0, 1474.0, 1474.0, 1477.0, 1480.0, 1472.0, 1474.0, 1472.0, 1472.0, 1471.0, 1475.0, 1478.0, 1471.0, 1472.0, 1475.0, 1471.0, 1471.0, 1473.0, 1469.0, 1469.0, 1474.0, 1475.0, 1481.0, 1469.0, 1468.0, 1474.0, 1470.0, 1476.0, 1477.0, 1478.0, 1475.0, 1475.0, 1474.0, 1476.0, 1477.0, 1477.0, 1469.0, 1469.0, 1471.0, 1471.0, 1470.0, 1472.0, 1474.0, 1474.0, 1469.0, 1475.0, 1469.0, 1471.0, 1470.0, 1476.0, 1481.0, 1473.0, 1467.0, 1478.0, 1472.0, 1473.0, 1470.0, 1473.0, 1477.0, 1485.0, 1474.0, 1475.0, 1472.0, 1475.0, 1481.0, 1479.0, 1481.0, 1473.0, 1474.0, 1481.0, 1474.0, 1475.0, 1470.0, 1473.0, 1476.0, 1471.0, 1474.0, 1471.0, 1472.0, 1476.0, 1478.0, 1477.0, 1482.0]
    },
    "slices": {}
  }
}