{
  "AcquisitionMatrixPE": 70,
  "AcquisitionNumber": 1,
  "AcquisitionTime": "12:10:47.157500",
  "BandwidthPerPixelPhaseEncode": 38.873,
  "BaseResolution": 70,
  "BodyPartExamined": "HEAD",
  "ConsistencyInfo": "N4_VE11B_LATEST_20150530",
  "ConversionSoftware": "dcm2niix",
  "ConversionSoftwareVersion": "v1.0.20190410  GCC6.3.0",
  "DerivedVendorReportedEchoSpacing": 0.000489996,
  "DeviceSerialNumber": "66088",
  "DwellTime": 2.9e-06,
  "EchoTime": 0.03,
  "EchoTrainLength": 53,
  "EffectiveEchoSpacing": 0.000367497,
  "FlipAngle": 90,
  "ImageOrientationPatientDICOM": [0.998959, 0.00229167, 0.0455677, 0.00871773, 0.97075, -0.239935],
  "ImageType": [
    "ORIGINAL",
    "PRIMARY",
    "M",
    "ND",
    "NORM",
    "MOSAIC"
],
  "ImagingFrequency": 123.191,
  "InPlanePhaseEncodingDirectionDICOM": "COL",
  "InstitutionAddress": "Street_StreetNo_City_District_IR_ZIP",
  "InstitutionName": "NBML",
  "InstitutionalDepartmentName": "Department",
  "MRAcquisitionType": "2D",
  "MagneticFieldStrength": 3,
  "Manufacturer": "Siemens",
  "ManufacturersModelName": "Prisma",
  "Modality": "MR",
  "ParallelReductionFactorInPlane": 2,
  "PartialFourier": 1,
  "PatientPosition": "HFS",
  "PercentPhaseFOV": 100,
  "PhaseEncodingDirection": "j-",
  "PhaseEncodingSteps": 105,
  "PhaseOversampling": 0.5,
  "PhaseResolution": 1,
  "PixelBandwidth": 2465,
  "ProcedureStepDescription": "NBML_Project_Dr_Khaligh",
  "ProtocolName": "ep2d_p2_Task_3.5_measurment:237",
  "PulseSequenceDetails": "%SiemensSeq%_ep2d_pace",
  "ReceiveCoilActiveElements": "HC1-7;NC1",
  "ReceiveCoilName": "HeadNeck_64",
  "ReconMatrixPE": 70,
  "RefLinesPE": 24,
  "RepetitionTime": 2,
  "SAR": 0.112212,
  "ScanOptions": "FS",
  "ScanningSequence": "EP",
  "SequenceName": "_epfid2d1_70",
  "SequenceVariant": "SK_OSP",
  "SeriesDescription": "ep2d_p2_Task_3.5_measurment:237",
  "SeriesNumber": 4,
  "ShimSetting": [2612, -4451, -3247, 401, 33, 169, 26, 72],
  "SliceThickness": 3.5,
  "SliceTiming": [0.99, 0, 1.0475, 0.0575, 1.1075, 0.1175, 1.165, 0.175, 1.2225, 0.2325, 1.28, 0.29, 1.34, 0.35, 1.3975, 0.4075, 1.455, 0.465, 1.515, 0.525, 1.5725, 0.5825, 1.63, 0.64, 1.6875, 0.6975, 1.7475, 0.7575, 1.805, 0.815, 1.8625, 0.8725, 1.9225, 0.9325],
  "SoftwareVersions": "syngo_MR_E11",
  "SpacingBetweenSlices": 4.025,
  "StationName": "AWP66088",
  "TaskName": "categorySelectivity",
  "TotalReadoutTime": 0.0253573,
  "TxRefAmp": 255.594,
  "dcmmeta_affine": [
    [-3.539167642593384, 0.030885670334100723, 0.18025821447372437, 123.91281127929688],
    [-0.008119065314531326, 3.43922758102417, -0.9663327932357788, -91.01374816894531],
    [0.1614397168159485, 0.8500564694404602, 3.903118371963501, -76.14710235595703],
    [0.0, 0.0, 0.0, 1.0]
],
  "dcmmeta_reorient_transform": [
    [0.0, -1.0, 0.0, 69.0],
    [1.0, 0.0, 0.0, 0.0],
    [0.0, 0.0, 1.0, 0.0],
    [0.0, 0.0, 0.0, 1.0]
],
  "dcmmeta_shape": [70, 70, 34, 237],
  "dcmmeta_slice_dim": 2,
  "dcmmeta_version": 0.6,
  "global": {
    "const": {
      "AccessionNumber": "BRZ",
      "AcquisitionMatrix": [70, 0, 0, 70],
      "AngioFlag": "N",
      "BitsAllocated": 16,
      "BitsStored": 12,
      "BodyPartExamined": "HEAD",
      "Columns": 420,
      "EchoNumbers": 1,
      "EchoTime": 30.0,
      "EchoTrainLength": 53,
      "FlipAngle": 90.0,
      "HighBit": 11,
      "ImageOrientationPatient": [0.99895862590345, 0.00229167159358, 0.04556766369265, 0.00871772962938, 0.9707497389088, -0.2399352946079],
      "ImagePositionPatient": [-750.80326817262, -749.57864299975, 103.01472710081],
      "ImageType": [
        "ORIGINAL",
        "PRIMARY",
        "M",
        "ND",
        "NORM",
        "MOSAIC"
],
      "ImagedNucleus": "1H",
      "ImagingFrequency": 123.191144,
      "InPlanePhaseEncodingDirection": "COL",
      "MRAcquisitionType": "2D",
      "MagneticFieldStrength": 3.0,
      "Manufacturer": "SIEMENS",
      "ManufacturerModelName": "Prisma",
      "Modality": "MR",
      "NumberOfAverages": 1.0,
      "NumberOfPhaseEncodingSteps": 105,
      "PercentPhaseFieldOfView": 100.0,
      "PercentSampling": 100.0,
      "PerformedProcedureStepStartTime": "115233.371000",
      "PhotometricInterpretation": "MONOCHROME2",
      "PixelBandwidth": 2465.0,
      "PixelRepresentation": 0,
      "PixelSpacing": [3.542857170105, 3.542857170105],
      "ProtocolName": "ep2d_p2_Task_3.5_measurment:237",
      "RepetitionTime": 2000.0,
      "Rows": 420,
      "SAR": 0.11221162538318,
      "SamplesPerPixel": 1,
      "ScanOptions": "FS",
      "ScanningSequence": "EP",
      "SequenceName": "*epfid2d1_70",
      "SequenceVariant": [
        "SK",
        "OSP"
],
      "SeriesDescription": "ep2d_p2_Task_3.5_measurment:237",
      "SeriesNumber": 4,
      "SeriesTime": "121135.735000",
      "SliceLocation": -46.441064185377,
      "SliceThickness": 3.5,
      "SmallestImagePixelValue": 0,
      "SoftwareVersions": "syngo MR E11",
      "SpacingBetweenSlices": 4.0250000043262,
      "SpecificCharacterSet": "ISO_IR 100",
      "StudyID": "1",
      "StudyTime": "115233.324000",
      "TransmitCoilName": "Body",
      "VariableFlipAngleFlag": "N",
      "WindowCenterWidthExplanation": "Algo1",
      "dBdt": 0.0},
    "slices": {}
  },
  "time": {
    "samples": {
      "AcquisitionNumber": [1, 2, 3, 4, 5, 6, 7, 8, 9, 10, 11, 12, 13, 14, 15, 16, 17, 18, 19, 20, 21, 22, 23, 24, 25, 26, 27, 28, 29, 30, 31, 32, 33, 34, 35, 36, 37, 38, 39, 40, 41, 42, 43, 44, 45, 46, 47, 48, 49, 50, 51, 52, 53, 54, 55, 56, 57, 58, 59, 60, 61, 62, 63, 64, 65, 66, 67, 68, 69, 70, 71, 72, 73, 74, 75, 76, 77, 78, 79, 80, 81, 82, 83, 84, 85, 86, 87, 88, 89, 90, 91, 92, 93, 94, 95, 96, 97, 98, 99, 100, 101, 102, 103, 104, 105, 106, 107, 108, 109, 110, 111, 112, 113, 114, 115, 116, 117, 118, 119, 120, 121, 122, 123, 124, 125, 126, 127, 128, 129, 130, 131, 132, 133, 134, 135, 136, 137, 138, 139, 140, 141, 142, 143, 144, 145, 146, 147, 148, 149, 150, 151, 152, 153, 154, 155, 156, 157, 158, 159, 160, 161, 162, 163, 164, 165, 166, 167, 168, 169, 170, 171, 172, 173, 174, 175, 176, 177, 178, 179, 180, 181, 182, 183, 184, 185, 186, 187, 188, 189, 190, 191, 192, 193, 194, 195, 196, 197, 198, 199, 200, 201, 202, 203, 204, 205, 206, 207, 208, 209, 210, 211, 212, 213, 214, 215, 216, 217, 218, 219, 220, 221, 222, 223, 224, 225, 226, 227, 228, 229, 230, 231, 232, 233, 234, 235, 236, 237],
      "AcquisitionTime": ["121047.157500", "121049.157500", "121051.157500", "121053.157500", "121055.157500", "121057.157500", "121059.157500", "121101.157500", "121103.157500", "121105.157500", "121107.157500", "121109.157500", "121111.157500", "121113.157500", "121115.157500", "121117.157500", "121119.157500", "121121.157500", "121123.157500", "121125.157500", "121127.157500", "121129.157500", "121131.157500", "121133.157500", "121135.157500", "121137.157500", "121139.157500", "121141.157500", "121143.157500", "121145.157500", "121147.157500", "121149.157500", "121151.157500", "121153.157500", "121155.157500", "121157.157500", "121159.157500", "121201.157500", "121203.157500", "121205.157500", "121207.157500", "121209.157500", "121211.157500", "121213.157500", "121215.157500", "121217.157500", "121219.157500", "121221.157500", "121223.157500", "121225.157500", "121227.157500", "121229.157500", "121231.157500", "121233.157500", "121235.157500", "121237.157500", "121239.157500", "121241.157500", "121243.157500", "121245.157500", "121247.157500", "121249.157500", "121251.157500", "121253.157500", "121255.157500", "121257.157500", "121259.157500", "121301.157500", "121303.157500", "121305.157500", "121307.157500", "121309.157500", "121311.157500", "121313.157500", "121315.157500", "121317.157500", "121319.157500", "121321.157500", "121323.157500", "121325.157500", "121327.157500", "121329.157500", "121331.157500", "121333.157500", "121335.157500", "121337.157500", "121339.157500", "121341.157500", "121343.157500", "121345.157500", "121347.157500", "121349.157500", "121351.157500", "121353.157500", "121355.157500", "121357.157500", "121359.157500", "121401.157500", "121403.157500", "121405.157500", "121407.157500", "121409.157500", "121411.157500", "121413.157500", "121415.157500", "121417.157500", "121419.157500", "121421.157500", "121423.157500", "121425.157500", "121427.157500", "121429.157500", "121431.157500", "121433.157500", "121435.157500", "121437.157500", "121439.157500", "121441.157500", "121443.157500", "121445.157500", "121447.157500", "121449.157500", "121451.157500", "121453.157500", "121455.157500", "121457.157500", "121459.157500", "121501.157500", "121503.157500", "121505.157500", "121507.157500", "121509.157500", "121511.157500", "121513.157500", "121515.157500", "121517.157500", "121519.157500", "121521.157500", "121523.157500", "121525.157500", "121527.157500", "121529.157500", "121531.157500", "121533.157500", "121535.157500", "121537.157500", "121539.157500", "121541.157500", "121543.157500", "121545.157500", "121547.157500", "121549.157500", "121551.157500", "121553.157500", "121555.157500", "121557.157500", "121559.157500", "121601.157500", "121603.157500", "121605.157500", "121607.157500", "121609.157500", "121611.157500", "121613.157500", "121615.157500", "121617.157500", "121619.157500", "121621.157500", "121623.157500", "121625.157500", "121627.157500", "121629.157500", "121631.157500", "121633.157500", "121635.157500", "121637.157500", "121639.157500", "121641.157500", "121643.157500", "121645.157500", "121647.157500", "121649.157500", "121651.157500", "121653.157500", "121655.157500", "121657.157500", "121659.157500", "121701.157500", "121703.157500", "121705.157500", "121707.157500", "121709.157500", "121711.157500", "121713.157500", "121715.157500", "121717.157500", "121719.157500", "121721.157500", "121723.157500", "121725.157500", "121727.157500", "121729.157500", "121731.157500", "121733.157500", "121735.157500", "121737.157500", "121739.157500", "121741.157500", "121743.157500", "121745.157500", "121747.157500", "121749.157500", "121751.157500", "121753.157500", "121755.157500", "121757.157500", "121759.157500", "121801.157500", "121803.157500", "121805.157500", "121807.157500", "121809.157500", "121811.157500", "121813.157500", "121815.157500", "121817.157500", "121819.157500", "121821.157500", "121823.157500", "121825.157500", "121827.157500", "121829.157500", "121831.157500", "121833.157500", "121835.157500", "121837.157500", "121839.157500"],
      "ContentTime": ["121135.740000", "121135.744000", "121135.747000", "121135.750000", "121135.754000", "121135.757000", "121135.760000", "121135.763000", "121135.766000", "121135.769000", "121135.772000", "121135.776000", "121135.779000", "121135.782000", "121135.785000", "121135.788000", "121135.804000", "121135.807000", "121135.810000", "121135.814000", "121135.817000", "121135.820000", "121135.823000", "121135.827000", "121215.715000", "121215.718000", "121215.720000", "121215.723000", "121215.725000", "121215.728000", "121215.730000", "121215.733000", "121215.735000", "121215.738000", "121215.740000", "121215.742000", "121215.745000", "121215.747000", "121215.749000", "121215.752000", "121215.754000", "121215.757000", "121215.759000", "121215.762000", "121255.714000", "121255.717000", "121255.720000", "121255.722000", "121255.725000", "121255.728000", "121255.730000", "121255.733000", "121255.735000", "121255.738000", "121255.740000", "121255.743000", "121255.745000", "121255.748000", "121255.750000", "121255.752000", "121255.755000", "121255.757000", "121255.760000", "121255.762000", "121335.715000", "121335.719000", "121335.722000", "121335.727000", "121335.730000", "121335.733000", "121335.736000", "121335.739000", "121335.743000", "121335.746000", "121335.749000", "121335.753000", "121335.756000", "121335.759000", "121335.763000", "121335.766000", "121335.769000", "121335.772000", "121335.776000", "121335.779000", "121415.714000", "121415.717000", "121415.719000", "121415.722000", "121415.724000", "121415.727000", "121415.729000", "121415.731000", "121415.734000", "121415.736000", "121415.739000", "121415.741000", "121415.743000", "121415.746000", "121415.748000", "121415.751000", "121415.753000", "121415.756000", "121415.758000", "121415.760000", "121455.714000", "121455.717000", "121455.720000", "121455.722000", "121455.724000", "121455.727000", "121455.730000", "121455.732000", "121455.734000", "121455.737000", "121455.739000", "121455.742000", "121455.744000", "121455.747000", "121455.749000", "121455.751000", "121455.754000", "121455.756000", "121455.759000", "121455.761000", "121535.716000", "121535.719000", "121535.722000", "121535.726000", "121535.729000", "121535.732000", "121535.735000", "121535.739000", "121535.742000", "121535.745000", "121535.748000", "121535.751000", "121535.754000", "121535.758000", "121535.761000", "121535.764000", "121535.767000", "121535.770000", "121535.774000", "121535.777000", "121615.715000", "121615.724000", "121615.727000", "121615.729000", "121615.732000", "121615.735000", "121615.737000", "121615.739000", "121615.742000", "121615.745000", "121615.747000", "121615.749000", "121615.752000", "121615.754000", "121615.757000", "121615.759000", "121615.761000", "121615.764000", "121615.766000", "121615.769000", "121655.714000", "121655.718000", "121655.720000", "121655.722000", "121655.725000", "121655.727000", "121655.730000", "121655.732000", "121655.734000", "121655.737000", "121655.739000", "121655.742000", "121655.744000", "121655.747000", "121655.749000", "121655.752000", "121655.754000", "121655.756000", "121655.759000", "121655.761000", "121735.715000", "121735.719000", "121735.722000", "121735.725000", "121735.729000", "121735.732000", "121735.735000", "121735.738000", "121735.741000", "121735.745000", "121735.755000", "121735.758000", "121735.762000", "121735.765000", "121735.768000", "121735.771000", "121735.774000", "121735.778000", "121735.781000", "121735.784000", "121815.715000", "121815.718000", "121815.720000", "121815.723000", "121815.725000", "121815.727000", "121815.730000", "121815.732000", "121815.735000", "121815.737000", "121815.740000", "121815.742000", "121815.744000", "121815.747000", "121815.749000", "121815.752000", "121815.754000", "121815.757000", "121815.759000", "121815.761000", "121840.970000", "121840.973000", "121840.976000", "121840.979000", "121840.982000", "121840.984000", "121840.987000", "121840.990000", "121840.992000", "121840.995000", "121840.998000", "121841.013000", "121841.017000"],
      "InstanceCreationTime": ["121135.740000", "121135.744000", "121135.747000", "121135.750000", "121135.754000", "121135.757000", "121135.760000", "121135.763000", "121135.766000", "121135.769000", "121135.772000", "121135.776000", "121135.779000", "121135.782000", "121135.785000", "121135.788000", "121135.804000", "121135.807000", "121135.810000", "121135.814000", "121135.817000", "121135.820000", "121135.823000", "121135.827000", "121215.715000", "121215.718000", "121215.720000", "121215.723000", "121215.725000", "121215.728000", "121215.730000", "121215.733000", "121215.735000", "121215.738000", "121215.740000", "121215.742000", "121215.745000", "121215.747000", "121215.749000", "121215.752000", "121215.754000", "121215.757000", "121215.759000", "121215.762000", "121255.714000", "121255.717000", "121255.720000", "121255.722000", "121255.725000", "121255.728000", "121255.730000", "121255.733000", "121255.735000", "121255.738000", "121255.740000", "121255.743000", "121255.745000", "121255.748000", "121255.750000", "121255.752000", "121255.755000", "121255.757000", "121255.760000", "121255.762000", "121335.715000", "121335.719000", "121335.722000", "121335.727000", "121335.730000", "121335.733000", "121335.736000", "121335.739000", "121335.743000", "121335.746000", "121335.749000", "121335.753000", "121335.756000", "121335.759000", "121335.763000", "121335.766000", "121335.769000", "121335.772000", "121335.776000", "121335.779000", "121415.714000", "121415.717000", "121415.719000", "121415.722000", "121415.724000", "121415.727000", "121415.729000", "121415.731000", "121415.734000", "121415.736000", "121415.739000", "121415.741000", "121415.743000", "121415.746000", "121415.748000", "121415.751000", "121415.753000", "121415.756000", "121415.758000", "121415.760000", "121455.714000", "121455.717000", "121455.720000", "121455.722000", "121455.724000", "121455.727000", "121455.730000", "121455.732000", "121455.734000", "121455.737000", "121455.739000", "121455.742000", "121455.744000", "121455.747000", "121455.749000", "121455.751000", "121455.754000", "121455.756000", "121455.759000", "121455.761000", "121535.716000", "121535.719000", "121535.722000", "121535.726000", "121535.729000", "121535.732000", "121535.735000", "121535.739000", "121535.742000", "121535.745000", "121535.748000", "121535.751000", "121535.754000", "121535.758000", "121535.761000", "121535.764000", "121535.767000", "121535.770000", "121535.774000", "121535.777000", "121615.715000", "121615.724000", "121615.727000", "121615.729000", "121615.732000", "121615.735000", "121615.737000", "121615.739000", "121615.742000", "121615.745000", "121615.747000", "121615.749000", "121615.752000", "121615.754000", "121615.757000", "121615.759000", "121615.761000", "121615.764000", "121615.766000", "121615.769000", "121655.714000", "121655.718000", "121655.720000", "121655.722000", "121655.725000", "121655.727000", "121655.730000", "121655.732000", "121655.734000", "121655.737000", "121655.739000", "121655.742000", "121655.744000", "121655.747000", "121655.749000", "121655.752000", "121655.754000", "121655.756000", "121655.759000", "121655.761000", "121735.715000", "121735.719000", "121735.722000", "121735.725000", "121735.729000", "121735.732000", "121735.735000", "121735.738000", "121735.741000", "121735.745000", "121735.755000", "121735.758000", "121735.762000", "121735.765000", "121735.768000", "121735.771000", "121735.774000", "121735.778000", "121735.781000", "121735.784000", "121815.715000", "121815.718000", "121815.720000", "121815.723000", "121815.725000", "121815.727000", "121815.730000", "121815.732000", "121815.735000", "121815.737000", "121815.740000", "121815.742000", "121815.744000", "121815.747000", "121815.749000", "121815.752000", "121815.754000", "121815.757000", "121815.759000", "121815.761000", "121840.970000", "121840.973000", "121840.976000", "121840.979000", "121840.982000", "121840.984000", "121840.987000", "121840.990000", "121840.992000", "121840.995000", "121840.998000", "121841.013000", "121841.017000"],
      "InstanceNumber": [1, 2, 3, 4, 5, 6, 7, 8, 9, 10, 11, 12, 13, 14, 15, 16, 17, 18, 19, 20, 21, 22, 23, 24, 25, 26, 27, 28, 29, 30, 31, 32, 33, 34, 35, 36, 37, 38, 39, 40, 41, 42, 43, 44, 45, 46, 47, 48, 49, 50, 51, 52, 53, 54, 55, 56, 57, 58, 59, 60, 61, 62, 63, 64, 65, 66, 67, 68, 69, 70, 71, 72, 73, 74, 75, 76, 77, 78, 79, 80, 81, 82, 83, 84, 85, 86, 87, 88, 89, 90, 91, 92, 93, 94, 95, 96, 97, 98, 99, 100, 101, 102, 103, 104, 105, 106, 107, 108, 109, 110, 111, 112, 113, 114, 115, 116, 117, 118, 119, 120, 121, 122, 123, 124, 125, 126, 127, 128, 129, 130, 131, 132, 133, 134, 135, 136, 137, 138, 139, 140, 141, 142, 143, 144, 145, 146, 147, 148, 149, 150, 151, 152, 153, 154, 155, 156, 157, 158, 159, 160, 161, 162, 163, 164, 165, 166, 167, 168, 169, 170, 171, 172, 173, 174, 175, 176, 177, 178, 179, 180, 181, 182, 183, 184, 185, 186, 187, 188, 189, 190, 191, 192, 193, 194, 195, 196, 197, 198, 199, 200, 201, 202, 203, 204, 205, 206, 207, 208, 209, 210, 211, 212, 213, 214, 215, 216, 217, 218, 219, 220, 221, 222, 223, 224, 225, 226, 227, 228, 229, 230, 231, 232, 233, 234, 235, 236, 237],
      "LargestImagePixelValue": [1950, 1690, 2070, 1776, 1724, 2487, 1974, 1903, 1816, 2284, 1710, 1621, 2572, 1848, 1925, 1758, 2018, 1660, 1878, 1816, 2678, 1836, 1841, 1715, 1867, 1715, 2402, 1809, 1729, 2101, 1771, 2341, 1644, 2220, 1753, 2264, 2155, 2125, 1710, 1675, 1911, 1998, 2479, 1834, 1641, 1692, 2079, 2345, 1742, 1713, 2041, 1679, 2083, 1743, 2700, 1764, 1846, 1698, 2091, 1743, 1970, 2067, 1945, 1948, 1847, 1955, 1746, 2045, 1677, 1782, 2528, 1919, 1653, 1684, 2731, 1776, 1734, 1710, 2422, 1779, 1818, 1694, 1864, 2242, 1803, 1776, 1709, 1994, 2721, 1844, 1749, 1751, 1843, 2601, 1817, 1679, 1756, 2416, 1810, 1829, 1940, 1743, 1847, 1857, 2349, 1896, 1737, 1718, 1718, 1634, 2123, 1720, 2334, 2257, 1965, 1816, 1820, 1736, 1867, 2052, 1670, 2124, 1807, 2593, 1776, 1940, 1646, 2412, 1772, 1646, 1879, 1998, 1741, 2725, 1827, 1705, 1658, 2234, 1992, 1916, 1826, 1680, 2219, 2101, 1718, 1790, 1761, 2476, 1872, 1804, 1739, 1889, 2098, 1755, 1762, 1666, 2069, 2645, 1823, 1780, 1802, 1717, 1796, 2302, 1859, 1698, 1744, 1729, 1628, 2478, 2367, 1727, 1687, 2386, 1806, 1734, 2092, 1857, 1699, 1689, 2092, 2489, 1826, 1699, 1721, 1758, 2321, 2344, 1808, 1733, 1700, 1651, 2536, 1864, 1711, 1809, 1706, 1691, 1868, 2426, 1782, 1793, 2185, 2755, 1875, 1659, 1720, 2283, 2263, 1727, 1789, 1689, 1674, 2642, 1770, 1675, 1677, 1931, 2756, 1760, 1935, 1756, 1872, 1766, 1682, 1778, 1781, 1993, 1968, 2490, 1713, 1736, 1689, 1667, 1785, 2307, 2133],
      "WindowCenter": [682.0, 680.0, 681.0, 680.0, 679.0, 681.0, 679.0, 679.0, 679.0, 679.0, 677.0, 678.0, 680.0, 678.0, 679.0, 678.0, 678.0, 678.0, 678.0, 678.0, 681.0, 679.0, 679.0, 679.0, 680.0, 679.0, 682.0, 680.0, 680.0, 682.0, 682.0, 682.0, 679.0, 680.0, 678.0, 681.0, 679.0, 678.0, 676.0, 677.0, 679.0, 679.0, 680.0, 677.0, 677.0, 677.0, 679.0, 680.0, 678.0, 678.0, 679.0, 679.0, 681.0, 678.0, 680.0, 677.0, 679.0, 677.0, 678.0, 676.0, 677.0, 679.0, 679.0, 679.0, 679.0, 679.0, 678.0, 680.0, 679.0, 680.0, 683.0, 681.0, 679.0, 678.0, 680.0, 678.0, 678.0, 678.0, 681.0, 680.0, 680.0, 680.0, 680.0, 681.0, 681.0, 681.0, 681.0, 683.0, 684.0, 680.0, 680.0, 682.0, 682.0, 683.0, 681.0, 680.0, 681.0, 682.0, 681.0, 682.0, 682.0, 680.0, 679.0, 680.0, 681.0, 679.0, 678.0, 677.0, 678.0, 680.0, 681.0, 679.0, 680.0, 680.0, 679.0, 678.0, 678.0, 678.0, 678.0, 679.0, 680.0, 681.0, 680.0, 682.0, 680.0, 680.0, 679.0, 681.0, 679.0, 677.0, 680.0, 680.0, 679.0, 681.0, 677.0, 678.0, 679.0, 682.0, 680.0, 681.0, 682.0, 680.0, 681.0, 680.0, 680.0, 680.0, 680.0, 682.0, 680.0, 680.0, 680.0, 680.0, 681.0, 680.0, 680.0, 680.0, 682.0, 683.0, 680.0, 681.0, 681.0, 678.0, 679.0, 681.0, 679.0, 678.0, 678.0, 678.0, 680.0, 683.0, 681.0, 678.0, 678.0, 680.0, 678.0, 678.0, 680.0, 680.0, 680.0, 680.0, 682.0, 681.0, 679.0, 679.0, 681.0, 683.0, 682.0, 680.0, 679.0, 679.0, 679.0, 679.0, 681.0, 679.0, 679.0, 680.0, 680.0, 679.0, 681.0, 683.0, 681.0, 681.0, 679.0, 680.0, 678.0, 677.0, 676.0, 679.0, 677.0, 675.0, 676.0, 676.0, 678.0, 680.0, 679.0, 678.0, 678.0, 680.0, 681.0, 677.0, 679.0, 677.0, 678.0, 678.0, 678.0, 678.0, 678.0, 679.0, 679.0, 680.0, 677.0, 678.0, 679.0, 680.0, 680.0, 684.0, 682.0],
      "WindowWidth": [1480.0, 1474.0, 1477.0, 1474.0, 1472.0, 1477.0, 1472.0, 1471.0, 1471.0, 1471.0, 1466.0, 1467.0, 1473.0, 1468.0, 1470.0, 1468.0, 1468.0, 1467.0, 1469.0, 1469.0, 1476.0, 1470.0, 1471.0, 1470.0, 1473.0, 1472.0, 1479.0, 1473.0, 1474.0, 1479.0, 1479.0, 1480.0, 1472.0, 1474.0, 1470.0, 1476.0, 1472.0, 1469.0, 1464.0, 1466.0, 1470.0, 1471.0, 1473.0, 1467.0, 1466.0, 1467.0, 1471.0, 1475.0, 1468.0, 1468.0, 1471.0, 1470.0, 1476.0, 1468.0, 1474.0, 1467.0, 1470.0, 1466.0, 1468.0, 1463.0, 1466.0, 1471.0, 1472.0, 1472.0, 1471.0, 1472.0, 1469.0, 1473.0, 1472.0, 1474.0, 1482.0, 1477.0, 1471.0, 1470.0, 1475.0, 1468.0, 1469.0, 1469.0, 1477.0, 1472.0, 1474.0, 1473.0, 1475.0, 1478.0, 1477.0, 1476.0, 1476.0, 1481.0, 1484.0, 1474.0, 1474.0, 1479.0, 1479.0, 1484.0, 1477.0, 1473.0, 1476.0, 1481.0, 1477.0, 1480.0, 1480.0, 1474.0, 1472.0, 1473.0, 1476.0, 1471.0, 1468.0, 1466.0, 1469.0, 1473.0, 1478.0, 1472.0, 1475.0, 1474.0, 1471.0, 1470.0, 1468.0, 1467.0, 1469.0, 1471.0, 1473.0, 1478.0, 1473.0, 1479.0, 1472.0, 1474.0, 1473.0, 1476.0, 1470.0, 1466.0, 1473.0, 1474.0, 1472.0, 1477.0, 1467.0, 1470.0, 1472.0, 1478.0, 1475.0, 1477.0, 1478.0, 1474.0, 1477.0, 1475.0, 1473.0, 1475.0, 1475.0, 1479.0, 1473.0, 1474.0, 1473.0, 1474.0, 1476.0, 1474.0, 1474.0, 1475.0, 1479.0, 1481.0, 1473.0, 1476.0, 1476.0, 1469.0, 1471.0, 1476.0, 1472.0, 1470.0, 1470.0, 1469.0, 1474.0, 1483.0, 1475.0, 1468.0, 1468.0, 1474.0, 1469.0, 1469.0, 1474.0, 1473.0, 1473.0, 1474.0, 1480.0, 1477.0, 1470.0, 1472.0, 1477.0, 1481.0, 1480.0, 1476.0, 1471.0, 1470.0, 1471.0, 1470.0, 1477.0, 1472.0, 1470.0, 1473.0, 1473.0, 1473.0, 1477.0, 1481.0, 1476.0, 1476.0, 1473.0, 1475.0, 1467.0, 1465.0, 1464.0, 1471.0, 1467.0, 1461.0, 1464.0, 1464.0, 1468.0, 1476.0, 1470.0, 1469.0, 1469.0, 1474.0, 1476.0, 1465.0, 1469.0, 1466.0, 1467.0, 1469.0, 1469.0, 1470.0, 1469.0, 1470.0, 1472.0, 1474.0, 1467.0, 1468.0, 1470.0, 1473.0, 1475.0, 1484.0, 1481.0]
    },
    "slices": {}
  }
}