{
  "AcquisitionMatrixPE": 70,
  "AcquisitionNumber": 1,
  "AcquisitionTime": "10:59:34.500000",
  "BandwidthPerPixelPhaseEncode": 38.873,
  "BaseResolution": 70,
  "BodyPartExamined": "HEAD",
  "ConsistencyInfo": "N4_VE11B_LATEST_20150530",
  "ConversionSoftware": "dcm2niix",
  "ConversionSoftwareVersion": "v1.0.20190410  GCC6.3.0",
  "DerivedVendorReportedEchoSpacing": 0.000489996,
  "DeviceSerialNumber": "66088",
  "DwellTime": 2.9e-06,
  "EchoTime": 0.03,
  "EchoTrainLength": 53,
  "EffectiveEchoSpacing": 0.000367497,
  "FlipAngle": 90,
  "ImageOrientationPatientDICOM": [0.989739, -0.0919915, 0.109338, 0.123279, 0.936638, -0.327889],
  "ImageType": [
    "ORIGINAL",
    "PRIMARY",
    "M",
    "ND",
    "NORM",
    "MOSAIC"
],
  "ImagingFrequency": 123.191,
  "InPlanePhaseEncodingDirectionDICOM": "COL",
  "InstitutionAddress": "Street_StreetNo_City_District_IR_ZIP",
  "InstitutionName": "NBML",
  "InstitutionalDepartmentName": "Department",
  "MRAcquisitionType": "2D",
  "MagneticFieldStrength": 3,
  "Manufacturer": "Siemens",
  "ManufacturersModelName": "Prisma",
  "Modality": "MR",
  "ParallelReductionFactorInPlane": 2,
  "PartialFourier": 1,
  "PatientPosition": "HFS",
  "PercentPhaseFOV": 100,
  "PhaseEncodingDirection": "j-",
  "PhaseEncodingSteps": 105,
  "PhaseOversampling": 0.5,
  "PhaseResolution": 1,
  "PixelBandwidth": 2465,
  "ProcedureStepDescription": "NBML_Project_P-96169-Ebrahiminiya",
  "ProtocolName": "ep2d_p2_Task_3.5_measurment:237",
  "PulseSequenceDetails": "%SiemensSeq%_ep2d_pace",
  "ReceiveCoilActiveElements": "HC1-7;NC1",
  "ReceiveCoilName": "HeadNeck_64",
  "ReconMatrixPE": 70,
  "RefLinesPE": 24,
  "RepetitionTime": 2,
  "SAR": 0.0899495,
  "ScanOptions": "FS",
  "ScanningSequence": "EP",
  "SequenceName": "_epfid2d1_70",
  "SequenceVariant": "SK_OSP",
  "SeriesDescription": "ep2d_p2_Task_3.5_measurment:237",
  "SeriesNumber": 5,
  "ShimSetting": [2618, -4469, -3279, 350, 13, 32, -4, -28],
  "SliceThickness": 3.5,
  "SliceTiming": [0.99, 0, 1.0475, 0.0575, 1.105, 0.115, 1.165, 0.175, 1.2225, 0.2325, 1.28, 0.29, 1.3375, 0.35, 1.3975, 0.4075, 1.455, 0.465, 1.5125, 0.5225, 1.5725, 0.5825, 1.63, 0.64, 1.6875, 0.6975, 1.7475, 0.7575, 1.805, 0.815, 1.8625, 0.8725, 1.92, 0.93],
  "SoftwareVersions": "syngo_MR_E11",
  "SpacingBetweenSlices": 3.85,
  "StationName": "AWP66088",
  "TaskName": "categorySelectivity",
  "TotalReadoutTime": 0.0253573,
  "TxRefAmp": 245.786,
  "dcmmeta_affine": [
    [-3.506502866744995, 0.4367583096027374, 0.27815136313438416, 109.27909851074219],
    [0.3259128928184509, 3.3183751106262207, -1.3013149499893188, -111.13227081298828],
    [0.3873690068721771, 1.1616653203964233, 3.612715244293213, -105.02293395996094],
    [0.0, 0.0, 0.0, 1.0]
],
  "dcmmeta_reorient_transform": [
    [0.0, -1.0, 0.0, 69.0],
    [1.0, 0.0, 0.0, 0.0],
    [0.0, 0.0, 1.0, 0.0],
    [0.0, 0.0, 0.0, 1.0]
],
  "dcmmeta_shape": [70, 70, 34, 237],
  "dcmmeta_slice_dim": 2,
  "dcmmeta_version": 0.6,
  "global": {
    "const": {
      "AcquisitionMatrix": [70, 0, 0, 70],
      "AngioFlag": "N",
      "BitsAllocated": 16,
      "BitsStored": 12,
      "BodyPartExamined": "HEAD",
      "Columns": 420,
      "EchoNumbers": 1,
      "EchoTime": 30.0,
      "EchoTrainLength": 53,
      "FlipAngle": 90.0,
      "HighBit": 11,
      "ImageOrientationPatient": [0.98973872965766, -0.0919915377268, 0.10933802633262, 0.12327855493702, 0.93663810040153, -0.3278894124074],
      "ImagePositionPatient": [-829.48614710636, -641.51647945471, 110.63383725701],
      "ImageType": [
        "ORIGINAL",
        "PRIMARY",
        "M",
        "ND",
        "NORM",
        "MOSAIC"
],
      "ImagedNucleus": "1H",
      "ImagingFrequency": 123.191153,
      "InPlanePhaseEncodingDirection": "COL",
      "MRAcquisitionType": "2D",
      "MagneticFieldStrength": 3.0,
      "Manufacturer": "SIEMENS",
      "ManufacturerModelName": "Prisma",
      "Modality": "MR",
      "NumberOfAverages": 1.0,
      "NumberOfPhaseEncodingSteps": 105,
      "PercentPhaseFieldOfView": 100.0,
      "PercentSampling": 100.0,
      "PerformedProcedureStepStartTime": "103346.712000",
      "PhotometricInterpretation": "MONOCHROME2",
      "PixelBandwidth": 2465.0,
      "PixelRepresentation": 0,
      "PixelSpacing": [3.542857170105, 3.542857170105],
      "ProtocolName": "ep2d_p2_Task_3.5_measurment:237",
      "RepetitionTime": 2000.0,
      "Rows": 420,
      "SAR": 0.089949506092,
      "SamplesPerPixel": 1,
      "ScanOptions": "FS",
      "ScanningSequence": "EP",
      "SequenceName": "*epfid2d1_70",
      "SequenceVariant": [
        "SK",
        "OSP"
],
      "SeriesDescription": "ep2d_p2_Task_3.5_measurment:237",
      "SeriesNumber": 5,
      "SeriesTime": "105954.849000",
      "SliceLocation": -53.091878053948,
      "SliceThickness": 3.5,
      "SmallestImagePixelValue": 0,
      "SoftwareVersions": "syngo MR E11",
      "SpacingBetweenSlices": 3.8499999692343,
      "SpecificCharacterSet": "ISO_IR 100",
      "StudyID": "1",
      "StudyTime": "103346.645000",
      "TransmitCoilName": "Body",
      "VariableFlipAngleFlag": "N",
      "WindowCenterWidthExplanation": "Algo1",
      "dBdt": 0.0},
    "slices": {}
  },
  "time": {
    "samples": {
      "AcquisitionNumber": [1, 2, 3, 4, 5, 6, 7, 8, 9, 10, 11, 12, 13, 14, 15, 16, 17, 18, 19, 20, 21, 22, 23, 24, 25, 26, 27, 28, 29, 30, 31, 32, 33, 34, 35, 36, 37, 38, 39, 40, 41, 42, 43, 44, 45, 46, 47, 48, 49, 50, 51, 52, 53, 54, 55, 56, 57, 58, 59, 60, 61, 62, 63, 64, 65, 66, 67, 68, 69, 70, 71, 72, 73, 74, 75, 76, 77, 78, 79, 80, 81, 82, 83, 84, 85, 86, 87, 88, 89, 90, 91, 92, 93, 94, 95, 96, 97, 98, 99, 100, 101, 102, 103, 104, 105, 106, 107, 108, 109, 110, 111, 112, 113, 114, 115, 116, 117, 118, 119, 120, 121, 122, 123, 124, 125, 126, 127, 128, 129, 130, 131, 132, 133, 134, 135, 136, 137, 138, 139, 140, 141, 142, 143, 144, 145, 146, 147, 148, 149, 150, 151, 152, 153, 154, 155, 156, 157, 158, 159, 160, 161, 162, 163, 164, 165, 166, 167, 168, 169, 170, 171, 172, 173, 174, 175, 176, 177, 178, 179, 180, 181, 182, 183, 184, 185, 186, 187, 188, 189, 190, 191, 192, 193, 194, 195, 196, 197, 198, 199, 200, 201, 202, 203, 204, 205, 206, 207, 208, 209, 210, 211, 212, 213, 214, 215, 216, 217, 218, 219, 220, 221, 222, 223, 224, 225, 226, 227, 228, 229, 230, 231, 232, 233, 234, 235, 236, 237],
      "AcquisitionTime": ["105934.500000", "105936.500000", "105938.500000", "105940.500000", "105942.500000", "105944.500000", "105946.500000", "105948.500000", "105950.500000", "105952.500000", "105954.500000", "105956.500000", "105958.500000", "110000.500000", "110002.500000", "110004.500000", "110006.500000", "110008.500000", "110010.500000", "110012.500000", "110014.500000", "110016.500000", "110018.500000", "110020.500000", "110022.500000", "110024.500000", "110026.500000", "110028.500000", "110030.500000", "110032.500000", "110034.500000", "110036.500000", "110038.500000", "110040.500000", "110042.500000", "110044.500000", "110046.500000", "110048.500000", "110050.500000", "110052.500000", "110054.500000", "110056.500000", "110058.500000", "110100.500000", "110102.500000", "110104.500000", "110106.500000", "110108.500000", "110110.500000", "110112.500000", "110114.500000", "110116.500000", "110118.500000", "110120.500000", "110122.500000", "110124.500000", "110126.500000", "110128.500000", "110130.500000", "110132.500000", "110134.500000", "110136.500000", "110138.500000", "110140.500000", "110142.500000", "110144.500000", "110146.500000", "110148.500000", "110150.500000", "110152.500000", "110154.500000", "110156.500000", "110158.500000", "110200.500000", "110202.500000", "110204.500000", "110206.500000", "110208.500000", "110210.500000", "110212.500000", "110214.500000", "110216.500000", "110218.500000", "110220.500000", "110222.500000", "110224.500000", "110226.500000", "110228.500000", "110230.500000", "110232.500000", "110234.500000", "110236.500000", "110238.500000", "110240.500000", "110242.500000", "110244.500000", "110246.500000", "110248.500000", "110250.500000", "110252.500000", "110254.500000", "110256.500000", "110258.500000", "110300.500000", "110302.500000", "110304.500000", "110306.500000", "110308.500000", "110310.500000", "110312.500000", "110314.500000", "110316.500000", "110318.500000", "110320.500000", "110322.500000", "110324.500000", "110326.500000", "110328.500000", "110330.500000", "110332.500000", "110334.500000", "110336.500000", "110338.500000", "110340.500000", "110342.500000", "110344.500000", "110346.500000", "110348.500000", "110350.500000", "110352.500000", "110354.500000", "110356.500000", "110358.500000", "110400.500000", "110402.500000", "110404.500000", "110406.500000", "110408.500000", "110410.500000", "110412.500000", "110414.500000", "110416.500000", "110418.500000", "110420.500000", "110422.500000", "110424.500000", "110426.500000", "110428.500000", "110430.500000", "110432.500000", "110434.500000", "110436.500000", "110438.500000", "110440.500000", "110442.500000", "110444.500000", "110446.500000", "110448.500000", "110450.500000", "110452.500000", "110454.500000", "110456.500000", "110458.500000", "110500.500000", "110502.500000", "110504.500000", "110506.500000", "110508.500000", "110510.500000", "110512.500000", "110514.500000", "110516.500000", "110518.500000", "110520.500000", "110522.500000", "110524.500000", "110526.500000", "110528.500000", "110530.500000", "110532.500000", "110534.500000", "110536.500000", "110538.500000", "110540.500000", "110542.500000", "110544.500000", "110546.500000", "110548.500000", "110550.500000", "110552.500000", "110554.500000", "110556.500000", "110558.500000", "110600.500000", "110602.500000", "110604.500000", "110606.500000", "110608.500000", "110610.500000", "110612.500000", "110614.500000", "110616.500000", "110618.500000", "110620.500000", "110622.500000", "110624.500000", "110626.500000", "110628.500000", "110630.500000", "110632.500000", "110634.500000", "110636.500000", "110638.500000", "110640.500000", "110642.500000", "110644.500000", "110646.500000", "110648.500000", "110650.500000", "110652.500000", "110654.500000", "110656.500000", "110658.500000", "110700.500000", "110702.500000", "110704.500000", "110706.500000", "110708.500000", "110710.500000", "110712.500000", "110714.500000", "110716.500000", "110718.500000", "110720.500000", "110722.500000", "110724.500000", "110726.500000"],
      "ContentTime": ["105954.853000", "105954.857000", "105954.860000", "105954.863000", "105954.867000", "105954.870000", "105954.873000", "105954.876000", "105954.879000", "105954.882000", "110034.848000", "110034.851000", "110034.854000", "110034.857000", "110034.861000", "110034.864000", "110034.867000", "110034.870000", "110034.873000", "110034.877000", "110034.880000", "110034.883000", "110034.886000", "110034.889000", "110034.892000", "110034.895000", "110034.898000", "110034.902000", "110034.905000", "110034.908000", "110114.850000", "110114.854000", "110114.857000", "110114.860000", "110114.863000", "110114.866000", "110114.870000", "110114.873000", "110114.876000", "110114.879000", "110114.883000", "110114.886000", "110114.889000", "110114.892000", "110114.895000", "110114.898000", "110114.901000", "110114.905000", "110114.908000", "110114.911000", "110154.849000", "110154.852000", "110154.855000", "110154.858000", "110154.862000", "110154.865000", "110154.868000", "110154.871000", "110154.874000", "110154.878000", "110154.881000", "110154.884000", "110154.887000", "110154.890000", "110154.893000", "110154.896000", "110154.900000", "110154.903000", "110154.906000", "110154.909000", "110234.848000", "110234.852000", "110234.855000", "110234.859000", "110234.863000", "110234.866000", "110234.870000", "110234.874000", "110234.878000", "110234.882000", "110234.885000", "110234.889000", "110234.893000", "110234.896000", "110234.899000", "110234.902000", "110234.905000", "110234.909000", "110234.912000", "110234.915000", "110314.849000", "110314.852000", "110314.856000", "110314.859000", "110314.862000", "110314.865000", "110314.868000", "110314.871000", "110314.883000", "110314.886000", "110314.889000", "110314.892000", "110314.895000", "110314.899000", "110314.902000", "110314.905000", "110314.908000", "110314.912000", "110314.915000", "110314.918000", "110354.849000", "110354.852000", "110354.855000", "110354.859000", "110354.862000", "110354.865000", "110354.868000", "110354.871000", "110354.874000", "110354.878000", "110354.881000", "110354.884000", "110354.887000", "110354.891000", "110354.894000", "110354.897000", "110354.900000", "110354.903000", "110354.907000", "110354.910000", "110434.848000", "110434.852000", "110434.855000", "110434.858000", "110434.862000", "110434.865000", "110434.868000", "110434.871000", "110434.875000", "110434.878000", "110434.881000", "110434.884000", "110434.887000", "110434.891000", "110434.894000", "110434.897000", "110434.901000", "110434.905000", "110434.908000", "110434.911000", "110514.848000", "110514.852000", "110514.855000", "110514.858000", "110514.862000", "110514.866000", "110514.869000", "110514.872000", "110514.875000", "110514.879000", "110514.882000", "110514.885000", "110514.888000", "110514.892000", "110514.895000", "110514.898000", "110514.901000", "110514.907000", "110514.910000", "110514.913000", "110554.848000", "110554.852000", "110554.855000", "110554.858000", "110554.861000", "110554.865000", "110554.868000", "110554.871000", "110554.875000", "110554.878000", "110554.881000", "110554.884000", "110554.888000", "110554.892000", "110554.895000", "110554.898000", "110554.901000", "110554.904000", "110554.908000", "110554.911000", "110634.849000", "110634.853000", "110634.856000", "110634.859000", "110634.862000", "110634.866000", "110634.869000", "110634.872000", "110634.875000", "110634.880000", "110634.883000", "110634.886000", "110634.890000", "110634.893000", "110634.896000", "110634.899000", "110634.903000", "110634.906000", "110634.909000", "110634.912000", "110714.848000", "110714.851000", "110714.854000", "110714.858000", "110714.861000", "110714.871000", "110714.874000", "110714.878000", "110714.881000", "110714.884000", "110714.887000", "110714.890000", "110714.893000", "110714.897000", "110714.900000", "110714.903000", "110714.906000", "110714.909000", "110714.912000", "110714.915000", "110727.985000", "110727.988000", "110727.991000", "110727.994000", "110727.997000", "110728.001000", "110728.004000"],
      "InstanceCreationTime": ["105954.853000", "105954.857000", "105954.860000", "105954.863000", "105954.867000", "105954.870000", "105954.873000", "105954.876000", "105954.879000", "105954.882000", "110034.848000", "110034.851000", "110034.854000", "110034.857000", "110034.861000", "110034.864000", "110034.867000", "110034.870000", "110034.873000", "110034.877000", "110034.880000", "110034.883000", "110034.886000", "110034.889000", "110034.892000", "110034.895000", "110034.898000", "110034.902000", "110034.905000", "110034.908000", "110114.850000", "110114.854000", "110114.857000", "110114.860000", "110114.863000", "110114.866000", "110114.870000", "110114.873000", "110114.876000", "110114.879000", "110114.883000", "110114.886000", "110114.889000", "110114.892000", "110114.895000", "110114.898000", "110114.901000", "110114.905000", "110114.908000", "110114.911000", "110154.849000", "110154.852000", "110154.855000", "110154.858000", "110154.862000", "110154.865000", "110154.868000", "110154.871000", "110154.874000", "110154.878000", "110154.881000", "110154.884000", "110154.887000", "110154.890000", "110154.893000", "110154.896000", "110154.900000", "110154.903000", "110154.906000", "110154.909000", "110234.848000", "110234.852000", "110234.855000", "110234.859000", "110234.863000", "110234.866000", "110234.870000", "110234.874000", "110234.878000", "110234.882000", "110234.885000", "110234.889000", "110234.893000", "110234.896000", "110234.899000", "110234.902000", "110234.905000", "110234.909000", "110234.912000", "110234.915000", "110314.849000", "110314.852000", "110314.856000", "110314.859000", "110314.862000", "110314.865000", "110314.868000", "110314.871000", "110314.883000", "110314.886000", "110314.889000", "110314.892000", "110314.895000", "110314.899000", "110314.902000", "110314.905000", "110314.908000", "110314.912000", "110314.915000", "110314.918000", "110354.849000", "110354.852000", "110354.855000", "110354.859000", "110354.862000", "110354.865000", "110354.868000", "110354.871000", "110354.874000", "110354.878000", "110354.881000", "110354.884000", "110354.887000", "110354.891000", "110354.894000", "110354.897000", "110354.900000", "110354.903000", "110354.907000", "110354.910000", "110434.848000", "110434.852000", "110434.855000", "110434.858000", "110434.862000", "110434.865000", "110434.868000", "110434.871000", "110434.875000", "110434.878000", "110434.881000", "110434.884000", "110434.887000", "110434.891000", "110434.894000", "110434.897000", "110434.901000", "110434.905000", "110434.908000", "110434.911000", "110514.848000", "110514.852000", "110514.855000", "110514.858000", "110514.862000", "110514.866000", "110514.869000", "110514.872000", "110514.875000", "110514.879000", "110514.882000", "110514.885000", "110514.888000", "110514.892000", "110514.895000", "110514.898000", "110514.901000", "110514.907000", "110514.910000", "110514.913000", "110554.848000", "110554.852000", "110554.855000", "110554.858000", "110554.861000", "110554.865000", "110554.868000", "110554.871000", "110554.875000", "110554.878000", "110554.881000", "110554.884000", "110554.888000", "110554.892000", "110554.895000", "110554.898000", "110554.901000", "110554.904000", "110554.908000", "110554.911000", "110634.849000", "110634.853000", "110634.856000", "110634.859000", "110634.862000", "110634.866000", "110634.869000", "110634.872000", "110634.875000", "110634.880000", "110634.883000", "110634.886000", "110634.890000", "110634.893000", "110634.896000", "110634.899000", "110634.903000", "110634.906000", "110634.909000", "110634.912000", "110714.848000", "110714.851000", "110714.854000", "110714.858000", "110714.861000", "110714.871000", "110714.874000", "110714.878000", "110714.881000", "110714.884000", "110714.887000", "110714.890000", "110714.893000", "110714.897000", "110714.900000", "110714.903000", "110714.906000", "110714.909000", "110714.912000", "110714.915000", "110727.985000", "110727.988000", "110727.991000", "110727.994000", "110727.997000", "110728.001000", "110728.004000"],
      "InstanceNumber": [1, 2, 3, 4, 5, 6, 7, 8, 9, 10, 11, 12, 13, 14, 15, 16, 17, 18, 19, 20, 21, 22, 23, 24, 25, 26, 27, 28, 29, 30, 31, 32, 33, 34, 35, 36, 37, 38, 39, 40, 41, 42, 43, 44, 45, 46, 47, 48, 49, 50, 51, 52, 53, 54, 55, 56, 57, 58, 59, 60, 61, 62, 63, 64, 65, 66, 67, 68, 69, 70, 71, 72, 73, 74, 75, 76, 77, 78, 79, 80, 81, 82, 83, 84, 85, 86, 87, 88, 89, 90, 91, 92, 93, 94, 95, 96, 97, 98, 99, 100, 101, 102, 103, 104, 105, 106, 107, 108, 109, 110, 111, 112, 113, 114, 115, 116, 117, 118, 119, 120, 121, 122, 123, 124, 125, 126, 127, 128, 129, 130, 131, 132, 133, 134, 135, 136, 137, 138, 139, 140, 141, 142, 143, 144, 145, 146, 147, 148, 149, 150, 151, 152, 153, 154, 155, 156, 157, 158, 159, 160, 161, 162, 163, 164, 165, 166, 167, 168, 169, 170, 171, 172, 173, 174, 175, 176, 177, 178, 179, 180, 181, 182, 183, 184, 185, 186, 187, 188, 189, 190, 191, 192, 193, 194, 195, 196, 197, 198, 199, 200, 201, 202, 203, 204, 205, 206, 207, 208, 209, 210, 211, 212, 213, 214, 215, 216, 217, 218, 219, 220, 221, 222, 223, 224, 225, 226, 227, 228, 229, 230, 231, 232, 233, 234, 235, 236, 237],
      "LargestImagePixelValue": [1721, 2088, 1934, 1793, 1860, 2410, 1871, 1842, 1760, 1568, 1772, 2346, 2009, 1757, 1812, 1837, 2337, 1859, 1814, 1841, 2220, 2301, 1931, 1840, 1746, 1818, 1804, 1586, 1883, 2473, 1896, 1794, 1831, 1812, 1743, 1811, 2050, 2381, 2343, 1860, 1849, 1705, 1751, 1847, 2271, 2572, 1888, 1906, 1812, 1761, 1769, 1726, 1709, 1694, 1689, 1832, 1810, 1902, 2196, 2609, 2167, 2282, 1841, 1811, 1753, 1682, 1772, 2082, 2308, 1813, 1800, 1833, 1806, 1670, 1749, 1760, 1808, 1937, 1744, 1829, 2005, 2034, 2399, 2274, 2035, 2219, 2073, 1843, 1903, 1881, 2012, 2157, 2029, 1987, 2127, 2423, 2328, 2247, 2253, 2315, 2193, 2149, 2190, 2015, 2162, 2255, 2040, 2273, 1982, 2299, 2187, 2588, 1809, 1846, 1792, 1731, 2020, 2309, 2690, 1792, 1805, 1836, 1817, 1735, 1740, 1832, 1818, 1784, 1871, 1985, 1827, 1928, 1811, 1889, 1918, 2323, 1990, 1787, 1842, 1807, 1804, 1901, 2040, 2176, 2158, 2205, 2452, 2547, 2447, 1928, 1822, 1748, 1899, 2252, 2194, 1885, 1870, 1959, 1827, 1839, 1873, 2204, 2001, 1872, 1866, 1875, 1756, 2155, 2504, 1865, 1844, 1879, 1919, 1889, 2197, 2579, 2588, 1916, 1920, 1847, 1757, 1596, 1954, 1706, 1902, 2233, 2581, 1964, 1896, 1775, 1682, 1968, 2390, 2515, 1974, 1896, 1881, 1869, 1869, 1954, 2557, 1854, 1715, 1731, 2098, 2265, 1915, 1845, 1888, 2277, 2321, 1901, 1923, 1861, 1737, 1669, 1886, 2488, 2035, 1907, 1872, 1740, 1618, 1927, 2474, 1907, 1920, 1869, 1762, 2115, 2558, 1985, 1901, 1887, 1845, 1882, 1804],
      "WindowCenter": [659.0, 659.0, 659.0, 658.0, 657.0, 659.0, 657.0, 657.0, 657.0, 656.0, 657.0, 660.0, 659.0, 657.0, 658.0, 658.0, 660.0, 657.0, 657.0, 657.0, 658.0, 659.0, 658.0, 657.0, 657.0, 657.0, 657.0, 656.0, 658.0, 660.0, 657.0, 657.0, 657.0, 658.0, 658.0, 657.0, 658.0, 659.0, 660.0, 658.0, 658.0, 658.0, 659.0, 659.0, 659.0, 660.0, 657.0, 657.0, 656.0, 656.0, 657.0, 656.0, 656.0, 657.0, 657.0, 658.0, 659.0, 659.0, 659.0, 659.0, 658.0, 659.0, 658.0, 657.0, 657.0, 657.0, 658.0, 660.0, 660.0, 657.0, 657.0, 657.0, 657.0, 656.0, 657.0, 657.0, 657.0, 657.0, 657.0, 658.0, 659.0, 660.0, 661.0, 661.0, 660.0, 661.0, 660.0, 658.0, 657.0, 657.0, 657.0, 658.0, 658.0, 659.0, 659.0, 660.0, 659.0, 659.0, 660.0, 660.0, 659.0, 659.0, 660.0, 659.0, 660.0, 660.0, 660.0, 662.0, 660.0, 660.0, 659.0, 659.0, 657.0, 658.0, 659.0, 659.0, 660.0, 660.0, 660.0, 656.0, 656.0, 657.0, 657.0, 657.0, 657.0, 657.0, 658.0, 658.0, 658.0, 658.0, 658.0, 658.0, 658.0, 659.0, 660.0, 660.0, 658.0, 657.0, 658.0, 659.0, 658.0, 658.0, 658.0, 659.0, 658.0, 658.0, 659.0, 659.0, 659.0, 658.0, 656.0, 656.0, 657.0, 660.0, 660.0, 658.0, 658.0, 657.0, 657.0, 657.0, 658.0, 660.0, 659.0, 659.0, 659.0, 659.0, 657.0, 658.0, 660.0, 658.0, 659.0, 660.0, 659.0, 658.0, 659.0, 659.0, 659.0, 657.0, 657.0, 656.0, 656.0, 655.0, 658.0, 657.0, 659.0, 660.0, 660.0, 658.0, 657.0, 657.0, 657.0, 659.0, 659.0, 659.0, 658.0, 657.0, 658.0, 658.0, 659.0, 658.0, 659.0, 656.0, 657.0, 657.0, 659.0, 659.0, 658.0, 657.0, 657.0, 659.0, 659.0, 658.0, 658.0, 658.0, 657.0, 657.0, 658.0, 660.0, 658.0, 657.0, 658.0, 657.0, 657.0, 658.0, 660.0, 658.0, 658.0, 658.0, 657.0, 659.0, 660.0, 658.0, 658.0, 658.0, 658.0, 657.0, 657.0],
      "WindowWidth": [1430.0, 1431.0, 1430.0, 1427.0, 1426.0, 1431.0, 1426.0, 1426.0, 1425.0, 1423.0, 1427.0, 1433.0, 1431.0, 1425.0, 1427.0, 1430.0, 1434.0, 1427.0, 1426.0, 1426.0, 1428.0, 1431.0, 1428.0, 1426.0, 1425.0, 1426.0, 1426.0, 1424.0, 1429.0, 1434.0, 1427.0, 1425.0, 1427.0, 1428.0, 1428.0, 1427.0, 1427.0, 1431.0, 1433.0, 1428.0, 1428.0, 1427.0, 1430.0, 1430.0, 1432.0, 1433.0, 1425.0, 1425.0, 1424.0, 1423.0, 1425.0, 1424.0, 1424.0, 1425.0, 1426.0, 1430.0, 1431.0, 1430.0, 1430.0, 1432.0, 1429.0, 1432.0, 1428.0, 1426.0, 1425.0, 1426.0, 1429.0, 1432.0, 1434.0, 1426.0, 1426.0, 1426.0, 1427.0, 1424.0, 1425.0, 1425.0, 1425.0, 1426.0, 1426.0, 1429.0, 1432.0, 1432.0, 1436.0, 1435.0, 1434.0, 1436.0, 1433.0, 1428.0, 1426.0, 1424.0, 1426.0, 1428.0, 1428.0, 1429.0, 1432.0, 1433.0, 1431.0, 1430.0, 1433.0, 1433.0, 1431.0, 1431.0, 1433.0, 1432.0, 1434.0, 1434.0, 1433.0, 1439.0, 1434.0, 1433.0, 1430.0, 1432.0, 1424.0, 1428.0, 1432.0, 1432.0, 1433.0, 1432.0, 1433.0, 1424.0, 1423.0, 1424.0, 1424.0, 1424.0, 1424.0, 1427.0, 1428.0, 1428.0, 1429.0, 1429.0, 1428.0, 1428.0, 1428.0, 1431.0, 1433.0, 1434.0, 1429.0, 1426.0, 1429.0, 1430.0, 1429.0, 1428.0, 1428.0, 1429.0, 1427.0, 1427.0, 1431.0, 1430.0, 1431.0, 1427.0, 1424.0, 1422.0, 1426.0, 1433.0, 1433.0, 1428.0, 1427.0, 1427.0, 1425.0, 1425.0, 1427.0, 1432.0, 1430.0, 1430.0, 1431.0, 1430.0, 1427.0, 1429.0, 1434.0, 1429.0, 1432.0, 1432.0, 1430.0, 1428.0, 1430.0, 1431.0, 1431.0, 1425.0, 1425.0, 1424.0, 1423.0, 1421.0, 1427.0, 1426.0, 1431.0, 1433.0, 1434.0, 1427.0, 1426.0, 1427.0, 1426.0, 1429.0, 1432.0, 1432.0, 1429.0, 1427.0, 1429.0, 1430.0, 1430.0, 1429.0, 1431.0, 1424.0, 1425.0, 1426.0, 1430.0, 1432.0, 1427.0, 1427.0, 1426.0, 1430.0, 1431.0, 1427.0, 1428.0, 1427.0, 1426.0, 1425.0, 1427.0, 1433.0, 1429.0, 1426.0, 1427.0, 1427.0, 1425.0, 1429.0, 1434.0, 1429.0, 1429.0, 1428.0, 1427.0, 1430.0, 1433.0, 1428.0, 1427.0, 1428.0, 1427.0, 1427.0, 1426.0]
    },
    "slices": {}
  }
}