{
  "AcquisitionMatrixPE": 70,
  "AcquisitionNumber": 1,
  "AcquisitionTime": "11:08:0.725000",
  "BandwidthPerPixelPhaseEncode": 38.873,
  "BaseResolution": 70,
  "BodyPartExamined": "HEAD",
  "ConsistencyInfo": "N4_VE11B_LATEST_20150530",
  "ConversionSoftware": "dcm2niix",
  "ConversionSoftwareVersion": "v1.0.20190410  GCC6.3.0",
  "DerivedVendorReportedEchoSpacing": 0.000489996,
  "DeviceSerialNumber": "66088",
  "DwellTime": 2.9e-06,
  "EchoTime": 0.03,
  "EchoTrainLength": 53,
  "EffectiveEchoSpacing": 0.000367497,
  "FlipAngle": 90,
  "ImageOrientationPatientDICOM": [0.989739, -0.0919915, 0.109338, 0.123279, 0.936638, -0.327889],
  "ImageType": [
    "ORIGINAL",
    "PRIMARY",
    "M",
    "ND",
    "NORM",
    "MOSAIC"
],
  "ImagingFrequency": 123.191,
  "InPlanePhaseEncodingDirectionDICOM": "COL",
  "InstitutionAddress": "Street_StreetNo_City_District_IR_ZIP",
  "InstitutionName": "NBML",
  "InstitutionalDepartmentName": "Department",
  "MRAcquisitionType": "2D",
  "MagneticFieldStrength": 3,
  "Manufacturer": "Siemens",
  "ManufacturersModelName": "Prisma",
  "Modality": "MR",
  "ParallelReductionFactorInPlane": 2,
  "PartialFourier": 1,
  "PatientPosition": "HFS",
  "PercentPhaseFOV": 100,
  "PhaseEncodingDirection": "j-",
  "PhaseEncodingSteps": 105,
  "PhaseOversampling": 0.5,
  "PhaseResolution": 1,
  "PixelBandwidth": 2465,
  "ProcedureStepDescription": "NBML_Project_P-96169-Ebrahiminiya",
  "ProtocolName": "ep2d_p2_Task_3.5_measurment:237",
  "PulseSequenceDetails": "%SiemensSeq%_ep2d_pace",
  "ReceiveCoilActiveElements": "HC1-7;NC1",
  "ReceiveCoilName": "HeadNeck_64",
  "ReconMatrixPE": 70,
  "RefLinesPE": 24,
  "RepetitionTime": 2,
  "SAR": 0.0899495,
  "ScanOptions": "FS",
  "ScanningSequence": "EP",
  "SequenceName": "_epfid2d1_70",
  "SequenceVariant": "SK_OSP",
  "SeriesDescription": "ep2d_p2_Task_3.5_measurment:237",
  "SeriesNumber": 6,
  "ShimSetting": [2618, -4469, -3279, 350, 13, 32, -4, -28],
  "SliceThickness": 3.5,
  "SliceTiming": [0.99, 0, 1.0475, 0.0575, 1.1075, 0.1175, 1.165, 0.175, 1.2225, 0.2325, 1.2825, 0.2925, 1.34, 0.35, 1.3975, 0.4075, 1.455, 0.465, 1.515, 0.525, 1.5725, 0.5825, 1.63, 0.64, 1.69, 0.7, 1.7475, 0.7575, 1.805, 0.815, 1.8625, 0.875, 1.9225, 0.9325],
  "SoftwareVersions": "syngo_MR_E11",
  "SpacingBetweenSlices": 3.85,
  "StationName": "AWP66088",
  "TaskName": "categorySelectivity",
  "TotalReadoutTime": 0.0253573,
  "TxRefAmp": 245.786,
  "dcmmeta_affine": [
    [-3.506502866744995, 0.4367583096027374, 0.27815136313438416, 109.27909851074219],
    [0.3259128928184509, 3.3183751106262207, -1.3013149499893188, -111.13227081298828],
    [0.3873690068721771, 1.1616653203964233, 3.612715244293213, -105.02293395996094],
    [0.0, 0.0, 0.0, 1.0]
],
  "dcmmeta_reorient_transform": [
    [0.0, -1.0, 0.0, 69.0],
    [1.0, 0.0, 0.0, 0.0],
    [0.0, 0.0, 1.0, 0.0],
    [0.0, 0.0, 0.0, 1.0]
],
  "dcmmeta_shape": [70, 70, 34, 237],
  "dcmmeta_slice_dim": 2,
  "dcmmeta_version": 0.6,
  "global": {
    "const": {
      "AcquisitionMatrix": [70, 0, 0, 70],
      "AngioFlag": "N",
      "BitsAllocated": 16,
      "BitsStored": 12,
      "BodyPartExamined": "HEAD",
      "Columns": 420,
      "EchoNumbers": 1,
      "EchoTime": 30.0,
      "EchoTrainLength": 53,
      "FlipAngle": 90.0,
      "HighBit": 11,
      "ImageOrientationPatient": [0.98973872965766, -0.0919915377268, 0.10933802633262, 0.12327855493702, 0.93663810040153, -0.3278894124074],
      "ImagePositionPatient": [-829.48614710636, -641.51647945471, 110.63383725701],
      "ImageType": [
        "ORIGINAL",
        "PRIMARY",
        "M",
        "ND",
        "NORM",
        "MOSAIC"
],
      "ImagedNucleus": "1H",
      "ImagingFrequency": 123.191153,
      "InPlanePhaseEncodingDirection": "COL",
      "MRAcquisitionType": "2D",
      "MagneticFieldStrength": 3.0,
      "Manufacturer": "SIEMENS",
      "ManufacturerModelName": "Prisma",
      "Modality": "MR",
      "NumberOfAverages": 1.0,
      "NumberOfPhaseEncodingSteps": 105,
      "PercentPhaseFieldOfView": 100.0,
      "PercentSampling": 100.0,
      "PerformedProcedureStepStartTime": "103346.712000",
      "PhotometricInterpretation": "MONOCHROME2",
      "PixelBandwidth": 2465.0,
      "PixelRepresentation": 0,
      "PixelSpacing": [3.542857170105, 3.542857170105],
      "ProtocolName": "ep2d_p2_Task_3.5_measurment:237",
      "RepetitionTime": 2000.0,
      "Rows": 420,
      "SAR": 0.089949506092,
      "SamplesPerPixel": 1,
      "ScanOptions": "FS",
      "ScanningSequence": "EP",
      "SequenceName": "*epfid2d1_70",
      "SequenceVariant": [
        "SK",
        "OSP"
],
      "SeriesDescription": "ep2d_p2_Task_3.5_measurment:237",
      "SeriesNumber": 6,
      "SeriesTime": "110857.017000",
      "SliceLocation": -53.091878053948,
      "SliceThickness": 3.5,
      "SmallestImagePixelValue": 0,
      "SoftwareVersions": "syngo MR E11",
      "SpacingBetweenSlices": 3.8499999692343,
      "SpecificCharacterSet": "ISO_IR 100",
      "StudyID": "1",
      "StudyTime": "103346.645000",
      "TransmitCoilName": "Body",
      "VariableFlipAngleFlag": "N",
      "WindowCenterWidthExplanation": "Algo1",
      "dBdt": 0.0},
    "slices": {}
  },
  "time": {
    "samples": {
      "AcquisitionNumber": [1, 2, 3, 4, 5, 6, 7, 8, 9, 10, 11, 12, 13, 14, 15, 16, 17, 18, 19, 20, 21, 22, 23, 24, 25, 26, 27, 28, 29, 30, 31, 32, 33, 34, 35, 36, 37, 38, 39, 40, 41, 42, 43, 44, 45, 46, 47, 48, 49, 50, 51, 52, 53, 54, 55, 56, 57, 58, 59, 60, 61, 62, 63, 64, 65, 66, 67, 68, 69, 70, 71, 72, 73, 74, 75, 76, 77, 78, 79, 80, 81, 82, 83, 84, 85, 86, 87, 88, 89, 90, 91, 92, 93, 94, 95, 96, 97, 98, 99, 100, 101, 102, 103, 104, 105, 106, 107, 108, 109, 110, 111, 112, 113, 114, 115, 116, 117, 118, 119, 120, 121, 122, 123, 124, 125, 126, 127, 128, 129, 130, 131, 132, 133, 134, 135, 136, 137, 138, 139, 140, 141, 142, 143, 144, 145, 146, 147, 148, 149, 150, 151, 152, 153, 154, 155, 156, 157, 158, 159, 160, 161, 162, 163, 164, 165, 166, 167, 168, 169, 170, 171, 172, 173, 174, 175, 176, 177, 178, 179, 180, 181, 182, 183, 184, 185, 186, 187, 188, 189, 190, 191, 192, 193, 194, 195, 196, 197, 198, 199, 200, 201, 202, 203, 204, 205, 206, 207, 208, 209, 210, 211, 212, 213, 214, 215, 216, 217, 218, 219, 220, 221, 222, 223, 224, 225, 226, 227, 228, 229, 230, 231, 232, 233, 234, 235, 236, 237],
      "AcquisitionTime": ["110800.725000", "110802.725000", "110804.725000", "110806.725000", "110808.725000", "110810.725000", "110812.725000", "110814.725000", "110816.725000", "110818.725000", "110820.725000", "110822.725000", "110824.725000", "110826.725000", "110828.725000", "110830.725000", "110832.725000", "110834.725000", "110836.725000", "110838.725000", "110840.725000", "110842.725000", "110844.725000", "110846.725000", "110848.725000", "110850.725000", "110852.725000", "110854.725000", "110856.725000", "110858.725000", "110900.725000", "110902.725000", "110904.725000", "110906.725000", "110908.725000", "110910.725000", "110912.725000", "110914.725000", "110916.725000", "110918.725000", "110920.725000", "110922.725000", "110924.725000", "110926.725000", "110928.725000", "110930.725000", "110932.725000", "110934.725000", "110936.725000", "110938.725000", "110940.725000", "110942.725000", "110944.725000", "110946.725000", "110948.725000", "110950.725000", "110952.725000", "110954.725000", "110956.725000", "110958.725000", "111000.725000", "111002.725000", "111004.725000", "111006.725000", "111008.725000", "111010.725000", "111012.725000", "111014.725000", "111016.725000", "111018.725000", "111020.725000", "111022.725000", "111024.725000", "111026.725000", "111028.725000", "111030.725000", "111032.725000", "111034.725000", "111036.725000", "111038.725000", "111040.725000", "111042.725000", "111044.725000", "111046.725000", "111048.725000", "111050.725000", "111052.725000", "111054.725000", "111056.725000", "111058.725000", "111100.725000", "111102.725000", "111104.725000", "111106.725000", "111108.725000", "111110.725000", "111112.725000", "111114.725000", "111116.725000", "111118.725000", "111120.725000", "111122.725000", "111124.725000", "111126.725000", "111128.725000", "111130.725000", "111132.725000", "111134.725000", "111136.725000", "111138.725000", "111140.725000", "111142.725000", "111144.725000", "111146.725000", "111148.725000", "111150.725000", "111152.725000", "111154.725000", "111156.725000", "111158.725000", "111200.725000", "111202.725000", "111204.725000", "111206.725000", "111208.725000", "111210.725000", "111212.725000", "111214.725000", "111216.725000", "111218.725000", "111220.725000", "111222.725000", "111224.725000", "111226.725000", "111228.725000", "111230.725000", "111232.725000", "111234.725000", "111236.725000", "111238.725000", "111240.725000", "111242.725000", "111244.725000", "111246.725000", "111248.725000", "111250.725000", "111252.725000", "111254.725000", "111256.725000", "111258.725000", "111300.725000", "111302.725000", "111304.725000", "111306.725000", "111308.725000", "111310.725000", "111312.725000", "111314.725000", "111316.725000", "111318.725000", "111320.725000", "111322.725000", "111324.725000", "111326.725000", "111328.725000", "111330.725000", "111332.725000", "111334.725000", "111336.725000", "111338.725000", "111340.725000", "111342.725000", "111344.725000", "111346.725000", "111348.725000", "111350.725000", "111352.725000", "111354.725000", "111356.725000", "111358.725000", "111400.725000", "111402.725000", "111404.725000", "111406.725000", "111408.725000", "111410.725000", "111412.725000", "111414.725000", "111416.725000", "111418.725000", "111420.725000", "111422.725000", "111424.725000", "111426.725000", "111428.725000", "111430.725000", "111432.725000", "111434.725000", "111436.725000", "111438.725000", "111440.725000", "111442.725000", "111444.725000", "111446.725000", "111448.725000", "111450.725000", "111452.725000", "111454.725000", "111456.725000", "111458.725000", "111500.725000", "111502.725000", "111504.725000", "111506.725000", "111508.725000", "111510.725000", "111512.725000", "111514.725000", "111516.725000", "111518.725000", "111520.725000", "111522.725000", "111524.725000", "111526.725000", "111528.725000", "111530.725000", "111532.725000", "111534.725000", "111536.725000", "111538.725000", "111540.725000", "111542.725000", "111544.725000", "111546.725000", "111548.725000", "111550.725000", "111552.725000"],
      "ContentTime": ["110857.021000", "110857.026000", "110857.029000", "110857.033000", "110857.036000", "110857.039000", "110857.042000", "110857.045000", "110857.048000", "110857.052000", "110857.055000", "110857.058000", "110857.061000", "110857.065000", "110857.068000", "110857.071000", "110857.074000", "110857.078000", "110857.089000", "110857.093000", "110857.096000", "110857.100000", "110857.103000", "110857.106000", "110857.109000", "110857.112000", "110857.116000", "110857.123000", "110917.019000", "110917.023000", "110917.027000", "110917.030000", "110917.033000", "110917.036000", "110917.039000", "110917.042000", "110917.045000", "110917.049000", "110957.016000", "110957.019000", "110957.023000", "110957.026000", "110957.029000", "110957.032000", "110957.035000", "110957.039000", "110957.042000", "110957.045000", "110957.048000", "110957.051000", "110957.055000", "110957.058000", "110957.061000", "110957.064000", "110957.067000", "110957.070000", "110957.074000", "110957.077000", "111037.017000", "111037.020000", "111037.023000", "111037.026000", "111037.029000", "111037.033000", "111037.036000", "111037.039000", "111037.042000", "111037.045000", "111037.048000", "111037.051000", "111037.055000", "111037.058000", "111037.061000", "111037.064000", "111037.067000", "111037.070000", "111037.073000", "111037.076000", "111117.015000", "111117.019000", "111117.021000", "111117.024000", "111117.026000", "111117.029000", "111117.031000", "111117.034000", "111117.036000", "111117.038000", "111117.041000", "111117.043000", "111117.046000", "111117.048000", "111117.051000", "111117.053000", "111117.056000", "111117.058000", "111117.061000", "111117.064000", "111157.016000", "111157.019000", "111157.023000", "111157.026000", "111157.029000", "111157.032000", "111157.035000", "111157.038000", "111157.041000", "111157.045000", "111157.048000", "111157.051000", "111157.054000", "111157.057000", "111157.061000", "111157.064000", "111157.067000", "111157.070000", "111157.074000", "111157.077000", "111237.017000", "111237.020000", "111237.024000", "111237.027000", "111237.030000", "111237.033000", "111237.036000", "111237.039000", "111237.043000", "111237.046000", "111237.049000", "111237.052000", "111237.055000", "111237.058000", "111237.062000", "111237.065000", "111237.068000", "111237.071000", "111237.074000", "111237.077000", "111317.016000", "111317.018000", "111317.021000", "111317.023000", "111317.026000", "111317.028000", "111317.031000", "111317.033000", "111317.035000", "111317.038000", "111317.040000", "111317.043000", "111317.045000", "111317.047000", "111317.050000", "111317.052000", "111317.055000", "111317.057000", "111317.060000", "111317.078000", "111357.017000", "111357.020000", "111357.024000", "111357.027000", "111357.030000", "111357.033000", "111357.036000", "111357.039000", "111357.042000", "111357.045000", "111357.049000", "111357.052000", "111357.055000", "111357.059000", "111357.063000", "111357.066000", "111357.070000", "111357.074000", "111357.082000", "111357.085000", "111437.016000", "111437.019000", "111437.023000", "111437.026000", "111437.029000", "111437.032000", "111437.036000", "111437.039000", "111437.042000", "111437.045000", "111437.048000", "111437.051000", "111437.054000", "111437.066000", "111437.069000", "111437.072000", "111437.075000", "111437.079000", "111437.082000", "111437.085000", "111517.016000", "111517.019000", "111517.021000", "111517.024000", "111517.026000", "111517.029000", "111517.031000", "111517.034000", "111517.036000", "111517.038000", "111517.041000", "111517.043000", "111517.050000", "111517.052000", "111517.054000", "111517.057000", "111517.059000", "111517.061000", "111517.064000", "111517.066000", "111554.139000", "111554.142000", "111554.145000", "111554.147000", "111554.150000", "111554.153000", "111554.155000", "111554.158000", "111554.160000", "111554.163000", "111554.166000", "111554.169000", "111554.172000", "111554.178000", "111554.182000", "111554.185000", "111554.188000", "111554.192000", "111554.195000"],
      "InstanceCreationTime": ["110857.021000", "110857.026000", "110857.029000", "110857.033000", "110857.036000", "110857.039000", "110857.042000", "110857.045000", "110857.048000", "110857.052000", "110857.055000", "110857.058000", "110857.061000", "110857.065000", "110857.068000", "110857.071000", "110857.074000", "110857.078000", "110857.089000", "110857.093000", "110857.096000", "110857.100000", "110857.103000", "110857.106000", "110857.109000", "110857.112000", "110857.116000", "110857.123000", "110917.019000", "110917.023000", "110917.027000", "110917.030000", "110917.033000", "110917.036000", "110917.039000", "110917.042000", "110917.045000", "110917.049000", "110957.016000", "110957.019000", "110957.023000", "110957.026000", "110957.029000", "110957.032000", "110957.035000", "110957.039000", "110957.042000", "110957.045000", "110957.048000", "110957.051000", "110957.055000", "110957.058000", "110957.061000", "110957.064000", "110957.067000", "110957.070000", "110957.074000", "110957.077000", "111037.017000", "111037.020000", "111037.023000", "111037.026000", "111037.029000", "111037.033000", "111037.036000", "111037.039000", "111037.042000", "111037.045000", "111037.048000", "111037.051000", "111037.055000", "111037.058000", "111037.061000", "111037.064000", "111037.067000", "111037.070000", "111037.073000", "111037.076000", "111117.015000", "111117.019000", "111117.021000", "111117.024000", "111117.026000", "111117.029000", "111117.031000", "111117.034000", "111117.036000", "111117.038000", "111117.041000", "111117.043000", "111117.046000", "111117.048000", "111117.051000", "111117.053000", "111117.056000", "111117.058000", "111117.061000", "111117.064000", "111157.016000", "111157.019000", "111157.023000", "111157.026000", "111157.029000", "111157.032000", "111157.035000", "111157.038000", "111157.041000", "111157.045000", "111157.048000", "111157.051000", "111157.054000", "111157.057000", "111157.061000", "111157.064000", "111157.067000", "111157.070000", "111157.074000", "111157.077000", "111237.017000", "111237.020000", "111237.024000", "111237.027000", "111237.030000", "111237.033000", "111237.036000", "111237.039000", "111237.043000", "111237.046000", "111237.049000", "111237.052000", "111237.055000", "111237.058000", "111237.062000", "111237.065000", "111237.068000", "111237.071000", "111237.074000", "111237.077000", "111317.016000", "111317.018000", "111317.021000", "111317.023000", "111317.026000", "111317.028000", "111317.031000", "111317.033000", "111317.035000", "111317.038000", "111317.040000", "111317.043000", "111317.045000", "111317.047000", "111317.050000", "111317.052000", "111317.055000", "111317.057000", "111317.060000", "111317.078000", "111357.017000", "111357.020000", "111357.024000", "111357.027000", "111357.030000", "111357.033000", "111357.036000", "111357.039000", "111357.042000", "111357.045000", "111357.049000", "111357.052000", "111357.055000", "111357.059000", "111357.063000", "111357.066000", "111357.070000", "111357.074000", "111357.082000", "111357.085000", "111437.016000", "111437.019000", "111437.023000", "111437.026000", "111437.029000", "111437.032000", "111437.036000", "111437.039000", "111437.042000", "111437.045000", "111437.048000", "111437.051000", "111437.054000", "111437.066000", "111437.069000", "111437.072000", "111437.075000", "111437.079000", "111437.082000", "111437.085000", "111517.016000", "111517.019000", "111517.021000", "111517.024000", "111517.026000", "111517.029000", "111517.031000", "111517.034000", "111517.036000", "111517.038000", "111517.041000", "111517.043000", "111517.050000", "111517.052000", "111517.054000", "111517.057000", "111517.059000", "111517.061000", "111517.064000", "111517.066000", "111554.139000", "111554.142000", "111554.145000", "111554.147000", "111554.150000", "111554.153000", "111554.155000", "111554.158000", "111554.160000", "111554.163000", "111554.166000", "111554.169000", "111554.172000", "111554.178000", "111554.182000", "111554.185000", "111554.188000", "111554.192000", "111554.195000"],
      "InstanceNumber": [1, 2, 3, 4, 5, 6, 7, 8, 9, 10, 11, 12, 13, 14, 15, 16, 17, 18, 19, 20, 21, 22, 23, 24, 25, 26, 27, 28, 29, 30, 31, 32, 33, 34, 35, 36, 37, 38, 39, 40, 41, 42, 43, 44, 45, 46, 47, 48, 49, 50, 51, 52, 53, 54, 55, 56, 57, 58, 59, 60, 61, 62, 63, 64, 65, 66, 67, 68, 69, 70, 71, 72, 73, 74, 75, 76, 77, 78, 79, 80, 81, 82, 83, 84, 85, 86, 87, 88, 89, 90, 91, 92, 93, 94, 95, 96, 97, 98, 99, 100, 101, 102, 103, 104, 105, 106, 107, 108, 109, 110, 111, 112, 113, 114, 115, 116, 117, 118, 119, 120, 121, 122, 123, 124, 125, 126, 127, 128, 129, 130, 131, 132, 133, 134, 135, 136, 137, 138, 139, 140, 141, 142, 143, 144, 145, 146, 147, 148, 149, 150, 151, 152, 153, 154, 155, 156, 157, 158, 159, 160, 161, 162, 163, 164, 165, 166, 167, 168, 169, 170, 171, 172, 173, 174, 175, 176, 177, 178, 179, 180, 181, 182, 183, 184, 185, 186, 187, 188, 189, 190, 191, 192, 193, 194, 195, 196, 197, 198, 199, 200, 201, 202, 203, 204, 205, 206, 207, 208, 209, 210, 211, 212, 213, 214, 215, 216, 217, 218, 219, 220, 221, 222, 223, 224, 225, 226, 227, 228, 229, 230, 231, 232, 233, 234, 235, 236, 237],
      "LargestImagePixelValue": [2045, 2440, 2612, 1927, 1836, 1817, 1834, 2246, 2277, 2376, 1894, 1745, 1933, 2352, 1955, 1846, 1787, 1739, 2474, 1783, 1765, 1965, 2311, 1876, 1954, 2015, 2165, 2488, 1892, 1889, 2065, 1972, 1666, 1887, 2530, 1869, 1773, 1891, 2185, 2358, 1936, 1880, 1729, 1993, 2546, 1940, 1840, 1944, 2246, 2524, 1924, 1880, 1737, 1624, 1963, 2158, 1876, 2101, 2240, 2392, 2490, 2081, 1889, 1874, 1845, 1872, 1875, 1783, 1935, 2218, 2613, 2074, 1855, 1882, 1866, 1830, 1756, 1938, 2164, 2205, 1919, 2523, 1848, 1790, 1921, 1901, 1717, 2128, 2336, 2457, 1902, 1890, 1880, 1790, 1753, 1682, 2335, 2190, 1902, 1819, 1875, 2253, 2665, 1886, 1829, 1846, 1754, 1682, 2492, 2144, 1807, 1690, 1791, 2591, 1920, 1837, 1902, 1800, 1882, 2501, 2056, 1822, 1903, 1880, 1794, 1839, 2434, 1902, 1823, 1882, 2034, 2419, 1925, 1852, 1674, 2045, 2021, 2424, 1862, 1786, 2186, 2746, 1957, 1821, 1742, 1774, 1957, 2271, 2238, 1837, 1809, 1870, 2000, 2099, 2412, 2351, 1855, 1862, 1839, 1842, 1920, 2200, 2367, 2297, 2433, 2302, 2843, 1917, 1853, 1760, 1779, 2379, 2264, 1894, 1908, 1865, 1743, 2017, 1850, 2728, 1912, 1764, 1783, 1597, 2018, 2374, 1863, 1802, 1840, 1881, 1718, 2037, 1924, 2334, 2299, 2299, 2063, 1857, 2061, 2332, 2268, 2091, 1868, 1811, 1724, 1788, 2178, 2336, 1872, 1849, 1836, 1736, 2311, 2737, 1856, 1835, 1838, 1774, 1900, 2307, 1996, 1790, 1726, 1786, 2200, 2293, 2344, 1890, 1866, 1763, 1838, 2107, 2325, 1839, 1871, 1791, 1792],
      "WindowCenter": [660.0, 660.0, 661.0, 658.0, 658.0, 657.0, 657.0, 659.0, 659.0, 660.0, 658.0, 657.0, 657.0, 659.0, 657.0, 657.0, 657.0, 657.0, 660.0, 657.0, 657.0, 658.0, 660.0, 658.0, 658.0, 658.0, 658.0, 660.0, 658.0, 658.0, 658.0, 658.0, 656.0, 658.0, 660.0, 658.0, 657.0, 657.0, 658.0, 659.0, 658.0, 658.0, 657.0, 658.0, 660.0, 658.0, 657.0, 658.0, 658.0, 659.0, 657.0, 658.0, 657.0, 658.0, 660.0, 661.0, 658.0, 658.0, 658.0, 659.0, 659.0, 658.0, 657.0, 658.0, 658.0, 658.0, 658.0, 658.0, 658.0, 659.0, 659.0, 658.0, 657.0, 658.0, 658.0, 658.0, 658.0, 658.0, 659.0, 659.0, 659.0, 661.0, 658.0, 657.0, 658.0, 658.0, 658.0, 659.0, 660.0, 660.0, 658.0, 658.0, 658.0, 657.0, 657.0, 657.0, 660.0, 660.0, 659.0, 658.0, 658.0, 659.0, 660.0, 657.0, 657.0, 658.0, 658.0, 658.0, 660.0, 658.0, 657.0, 656.0, 657.0, 660.0, 658.0, 658.0, 659.0, 659.0, 658.0, 659.0, 658.0, 658.0, 659.0, 658.0, 657.0, 657.0, 660.0, 658.0, 658.0, 658.0, 658.0, 659.0, 658.0, 658.0, 657.0, 659.0, 659.0, 662.0, 660.0, 659.0, 659.0, 660.0, 657.0, 657.0, 656.0, 657.0, 658.0, 660.0, 660.0, 658.0, 658.0, 658.0, 658.0, 659.0, 660.0, 660.0, 659.0, 660.0, 660.0, 659.0, 659.0, 659.0, 660.0, 660.0, 660.0, 659.0, 661.0, 658.0, 658.0, 657.0, 656.0, 659.0, 659.0, 659.0, 658.0, 660.0, 658.0, 659.0, 657.0, 658.0, 656.0, 656.0, 657.0, 657.0, 659.0, 660.0, 658.0, 657.0, 658.0, 659.0, 658.0, 660.0, 660.0, 662.0, 661.0, 661.0, 659.0, 657.0, 657.0, 659.0, 660.0, 659.0, 659.0, 658.0, 657.0, 657.0, 660.0, 661.0, 659.0, 658.0, 658.0, 658.0, 660.0, 661.0, 658.0, 658.0, 658.0, 658.0, 659.0, 660.0, 659.0, 658.0, 658.0, 658.0, 660.0, 660.0, 660.0, 658.0, 658.0, 658.0, 659.0, 660.0, 661.0, 659.0, 659.0, 658.0, 658.0],
      "WindowWidth": [1434.0, 1433.0, 1435.0, 1429.0, 1427.0, 1426.0, 1426.0, 1430.0, 1430.0, 1432.0, 1428.0, 1425.0, 1426.0, 1430.0, 1426.0, 1425.0, 1426.0, 1424.0, 1432.0, 1425.0, 1426.0, 1429.0, 1433.0, 1427.0, 1427.0, 1427.0, 1429.0, 1434.0, 1429.0, 1427.0, 1427.0, 1427.0, 1424.0, 1428.0, 1435.0, 1427.0, 1425.0, 1425.0, 1427.0, 1431.0, 1428.0, 1428.0, 1425.0, 1428.0, 1433.0, 1428.0, 1427.0, 1427.0, 1428.0, 1431.0, 1426.0, 1427.0, 1426.0, 1427.0, 1433.0, 1435.0, 1429.0, 1429.0, 1429.0, 1429.0, 1431.0, 1428.0, 1427.0, 1428.0, 1429.0, 1429.0, 1429.0, 1428.0, 1429.0, 1430.0, 1432.0, 1427.0, 1426.0, 1427.0, 1428.0, 1428.0, 1427.0, 1429.0, 1430.0, 1430.0, 1430.0, 1437.0, 1429.0, 1427.0, 1427.0, 1428.0, 1427.0, 1431.0, 1433.0, 1434.0, 1428.0, 1427.0, 1427.0, 1426.0, 1426.0, 1426.0, 1433.0, 1433.0, 1432.0, 1429.0, 1428.0, 1429.0, 1433.0, 1425.0, 1425.0, 1427.0, 1428.0, 1428.0, 1434.0, 1429.0, 1424.0, 1423.0, 1425.0, 1434.0, 1427.0, 1427.0, 1430.0, 1430.0, 1429.0, 1431.0, 1428.0, 1427.0, 1430.0, 1428.0, 1425.0, 1425.0, 1432.0, 1427.0, 1427.0, 1427.0, 1427.0, 1431.0, 1427.0, 1428.0, 1426.0, 1432.0, 1431.0, 1438.0, 1433.0, 1431.0, 1431.0, 1433.0, 1426.0, 1424.0, 1424.0, 1425.0, 1429.0, 1432.0, 1432.0, 1427.0, 1428.0, 1428.0, 1429.0, 1430.0, 1432.0, 1433.0, 1430.0, 1432.0, 1433.0, 1431.0, 1430.0, 1431.0, 1432.0, 1432.0, 1433.0, 1432.0, 1435.0, 1427.0, 1426.0, 1424.0, 1424.0, 1429.0, 1430.0, 1429.0, 1429.0, 1432.0, 1428.0, 1430.0, 1424.0, 1427.0, 1421.0, 1422.0, 1427.0, 1425.0, 1430.0, 1434.0, 1427.0, 1427.0, 1429.0, 1431.0, 1429.0, 1432.0, 1432.0, 1438.0, 1437.0, 1435.0, 1430.0, 1426.0, 1426.0, 1430.0, 1432.0, 1432.0, 1429.0, 1428.0, 1426.0, 1426.0, 1434.0, 1436.0, 1431.0, 1428.0, 1429.0, 1427.0, 1432.0, 1435.0, 1427.0, 1428.0, 1429.0, 1428.0, 1429.0, 1434.0, 1431.0, 1427.0, 1427.0, 1429.0, 1433.0, 1433.0, 1433.0, 1429.0, 1429.0, 1429.0, 1430.0, 1433.0, 1436.0, 1432.0, 1431.0, 1428.0, 1428.0]
    },
    "slices": {}
  }
}