{
  "AcquisitionMatrixPE": 70,
  "AcquisitionNumber": 1,
  "AcquisitionTime": "10:41:3.552500",
  "BandwidthPerPixelPhaseEncode": 38.873,
  "BaseResolution": 70,
  "BodyPartExamined": "HEAD",
  "ConsistencyInfo": "N4_VE11B_LATEST_20150530",
  "ConversionSoftware": "dcm2niix",
  "ConversionSoftwareVersion": "v1.0.20190410  GCC6.3.0",
  "DerivedVendorReportedEchoSpacing": 0.000489996,
  "DeviceSerialNumber": "66088",
  "DwellTime": 2.9e-06,
  "EchoTime": 0.03,
  "EchoTrainLength": 53,
  "EffectiveEchoSpacing": 0.000367497,
  "FlipAngle": 90,
  "ImageOrientationPatientDICOM": [0.989739, -0.0919915, 0.109338, 0.123279, 0.936638, -0.327889],
  "ImageType": [
    "ORIGINAL",
    "PRIMARY",
    "M",
    "ND",
    "NORM",
    "MOSAIC"
],
  "ImagingFrequency": 123.191,
  "InPlanePhaseEncodingDirectionDICOM": "COL",
  "InstitutionAddress": "Street_StreetNo_City_District_IR_ZIP",
  "InstitutionName": "NBML",
  "InstitutionalDepartmentName": "Department",
  "MRAcquisitionType": "2D",
  "MagneticFieldStrength": 3,
  "Manufacturer": "Siemens",
  "ManufacturersModelName": "Prisma",
  "Modality": "MR",
  "ParallelReductionFactorInPlane": 2,
  "PartialFourier": 1,
  "PatientPosition": "HFS",
  "PercentPhaseFOV": 100,
  "PhaseEncodingDirection": "j-",
  "PhaseEncodingSteps": 105,
  "PhaseOversampling": 0.5,
  "PhaseResolution": 1,
  "PixelBandwidth": 2465,
  "ProcedureStepDescription": "NBML_Project_P-96169-Ebrahiminiya",
  "ProtocolName": "ep2d_p2_Task_3.5_measurment:237",
  "PulseSequenceDetails": "%SiemensSeq%_ep2d_pace",
  "ReceiveCoilActiveElements": "HC1-7;NC1",
  "ReceiveCoilName": "HeadNeck_64",
  "ReconMatrixPE": 70,
  "RefLinesPE": 24,
  "RepetitionTime": 2,
  "SAR": 0.0899495,
  "ScanOptions": "FS",
  "ScanningSequence": "EP",
  "SequenceName": "_epfid2d1_70",
  "SequenceVariant": "SK_OSP",
  "SeriesDescription": "ep2d_p2_Task_3.5_measurment:237",
  "SeriesNumber": 3,
  "ShimSetting": [2618, -4469, -3279, 350, 13, 32, -4, -28],
  "SliceThickness": 3.5,
  "SliceTiming": [0.99, 0, 1.05, 0.06, 1.1075, 0.1175, 1.165, 0.175, 1.2225, 0.2325, 1.2825, 0.2925, 1.34, 0.35, 1.3975, 0.4075, 1.4575, 0.4675, 1.515, 0.525, 1.5725, 0.5825, 1.63, 0.64, 1.69, 0.7, 1.7475, 0.7575, 1.805, 0.815, 1.865, 0.875, 1.9225, 0.9325],
  "SoftwareVersions": "syngo_MR_E11",
  "SpacingBetweenSlices": 3.85,
  "StationName": "AWP66088",
  "TaskName": "categorySelectivity",
  "TotalReadoutTime": 0.0253573,
  "TxRefAmp": 245.786,
  "dcmmeta_affine": [
    [-3.506502866744995, 0.4367583096027374, 0.27815136313438416, 109.27909851074219],
    [0.3259128928184509, 3.3183751106262207, -1.3013149499893188, -111.13227081298828],
    [0.3873690068721771, 1.1616653203964233, 3.612715244293213, -105.02293395996094],
    [0.0, 0.0, 0.0, 1.0]
],
  "dcmmeta_reorient_transform": [
    [0.0, -1.0, 0.0, 69.0],
    [1.0, 0.0, 0.0, 0.0],
    [0.0, 0.0, 1.0, 0.0],
    [0.0, 0.0, 0.0, 1.0]
],
  "dcmmeta_shape": [70, 70, 34, 237],
  "dcmmeta_slice_dim": 2,
  "dcmmeta_version": 0.6,
  "global": {
    "const": {
      "AcquisitionMatrix": [70, 0, 0, 70],
      "AngioFlag": "N",
      "BitsAllocated": 16,
      "BitsStored": 12,
      "BodyPartExamined": "HEAD",
      "Columns": 420,
      "EchoNumbers": 1,
      "EchoTime": 30.0,
      "EchoTrainLength": 53,
      "FlipAngle": 90.0,
      "HighBit": 11,
      "ImageOrientationPatient": [0.98973872965766, -0.0919915377268, 0.10933802633262, 0.12327855493702, 0.93663810040153, -0.3278894124074],
      "ImagePositionPatient": [-829.48614710636, -641.51647945471, 110.63383725701],
      "ImageType": [
        "ORIGINAL",
        "PRIMARY",
        "M",
        "ND",
        "NORM",
        "MOSAIC"
],
      "ImagedNucleus": "1H",
      "ImagingFrequency": 123.191152,
      "InPlanePhaseEncodingDirection": "COL",
      "MRAcquisitionType": "2D",
      "MagneticFieldStrength": 3.0,
      "Manufacturer": "SIEMENS",
      "ManufacturerModelName": "Prisma",
      "Modality": "MR",
      "NumberOfAverages": 1.0,
      "NumberOfPhaseEncodingSteps": 105,
      "PercentPhaseFieldOfView": 100.0,
      "PercentSampling": 100.0,
      "PerformedProcedureStepStartTime": "103346.712000",
      "PhotometricInterpretation": "MONOCHROME2",
      "PixelBandwidth": 2465.0,
      "PixelRepresentation": 0,
      "PixelSpacing": [3.542857170105, 3.542857170105],
      "ProtocolName": "ep2d_p2_Task_3.5_measurment:237",
      "RepetitionTime": 2000.0,
      "Rows": 420,
      "SAR": 0.089949506092,
      "SamplesPerPixel": 1,
      "ScanOptions": "FS",
      "ScanningSequence": "EP",
      "SequenceName": "*epfid2d1_70",
      "SequenceVariant": [
        "SK",
        "OSP"
],
      "SeriesDescription": "ep2d_p2_Task_3.5_measurment:237",
      "SeriesNumber": 3,
      "SeriesTime": "104157.021000",
      "SliceLocation": -53.091878053948,
      "SliceThickness": 3.5,
      "SmallestImagePixelValue": 0,
      "SoftwareVersions": "syngo MR E11",
      "SpacingBetweenSlices": 3.8499999692343,
      "SpecificCharacterSet": "ISO_IR 100",
      "StudyID": "1",
      "StudyTime": "103346.645000",
      "TransmitCoilName": "Body",
      "VariableFlipAngleFlag": "N",
      "WindowCenterWidthExplanation": "Algo1",
      "dBdt": 0.0},
    "slices": {}
  },
  "time": {
    "samples": {
      "AcquisitionNumber": [1, 2, 3, 4, 5, 6, 7, 8, 9, 10, 11, 12, 13, 14, 15, 16, 17, 18, 19, 20, 21, 22, 23, 24, 25, 26, 27, 28, 29, 30, 31, 32, 33, 34, 35, 36, 37, 38, 39, 40, 41, 42, 43, 44, 45, 46, 47, 48, 49, 50, 51, 52, 53, 54, 55, 56, 57, 58, 59, 60, 61, 62, 63, 64, 65, 66, 67, 68, 69, 70, 71, 72, 73, 74, 75, 76, 77, 78, 79, 80, 81, 82, 83, 84, 85, 86, 87, 88, 89, 90, 91, 92, 93, 94, 95, 96, 97, 98, 99, 100, 101, 102, 103, 104, 105, 106, 107, 108, 109, 110, 111, 112, 113, 114, 115, 116, 117, 118, 119, 120, 121, 122, 123, 124, 125, 126, 127, 128, 129, 130, 131, 132, 133, 134, 135, 136, 137, 138, 139, 140, 141, 142, 143, 144, 145, 146, 147, 148, 149, 150, 151, 152, 153, 154, 155, 156, 157, 158, 159, 160, 161, 162, 163, 164, 165, 166, 167, 168, 169, 170, 171, 172, 173, 174, 175, 176, 177, 178, 179, 180, 181, 182, 183, 184, 185, 186, 187, 188, 189, 190, 191, 192, 193, 194, 195, 196, 197, 198, 199, 200, 201, 202, 203, 204, 205, 206, 207, 208, 209, 210, 211, 212, 213, 214, 215, 216, 217, 218, 219, 220, 221, 222, 223, 224, 225, 226, 227, 228, 229, 230, 231, 232, 233, 234, 235, 236, 237],
      "AcquisitionTime": ["104103.552500", "104105.552500", "104107.552500", "104109.552500", "104111.552500", "104113.552500", "104115.552500", "104117.552500", "104119.552500", "104121.552500", "104123.552500", "104125.552500", "104127.552500", "104129.552500", "104131.552500", "104133.552500", "104135.552500", "104137.552500", "104139.552500", "104141.552500", "104143.552500", "104145.552500", "104147.552500", "104149.552500", "104151.552500", "104153.552500", "104155.552500", "104157.552500", "104159.552500", "104201.552500", "104203.552500", "104205.552500", "104207.552500", "104209.552500", "104211.552500", "104213.552500", "104215.552500", "104217.552500", "104219.552500", "104221.552500", "104223.552500", "104225.552500", "104227.552500", "104229.552500", "104231.552500", "104233.552500", "104235.552500", "104237.552500", "104239.552500", "104241.552500", "104243.552500", "104245.552500", "104247.552500", "104249.552500", "104251.552500", "104253.552500", "104255.552500", "104257.552500", "104259.552500", "104301.552500", "104303.552500", "104305.552500", "104307.552500", "104309.552500", "104311.552500", "104313.552500", "104315.552500", "104317.552500", "104319.552500", "104321.552500", "104323.552500", "104325.552500", "104327.552500", "104329.552500", "104331.552500", "104333.552500", "104335.552500", "104337.552500", "104339.552500", "104341.552500", "104343.552500", "104345.552500", "104347.552500", "104349.552500", "104351.552500", "104353.552500", "104355.552500", "104357.552500", "104359.552500", "104401.552500", "104403.552500", "104405.552500", "104407.552500", "104409.552500", "104411.552500", "104413.552500", "104415.552500", "104417.552500", "104419.552500", "104421.552500", "104423.552500", "104425.552500", "104427.552500", "104429.552500", "104431.552500", "104433.552500", "104435.552500", "104437.552500", "104439.552500", "104441.552500", "104443.552500", "104445.552500", "104447.552500", "104449.552500", "104451.552500", "104453.552500", "104455.552500", "104457.552500", "104459.552500", "104501.552500", "104503.552500", "104505.552500", "104507.552500", "104509.552500", "104511.552500", "104513.552500", "104515.552500", "104517.552500", "104519.552500", "104521.552500", "104523.552500", "104525.552500", "104527.552500", "104529.552500", "104531.552500", "104533.552500", "104535.552500", "104537.552500", "104539.552500", "104541.552500", "104543.552500", "104545.552500", "104547.552500", "104549.552500", "104551.552500", "104553.552500", "104555.552500", "104557.552500", "104559.552500", "104601.552500", "104603.552500", "104605.552500", "104607.552500", "104609.552500", "104611.552500", "104613.552500", "104615.552500", "104617.552500", "104619.552500", "104621.552500", "104623.552500", "104625.552500", "104627.552500", "104629.552500", "104631.552500", "104633.552500", "104635.552500", "104637.552500", "104639.552500", "104641.552500", "104643.552500", "104645.552500", "104647.552500", "104649.552500", "104651.552500", "104653.552500", "104655.552500", "104657.552500", "104659.552500", "104701.552500", "104703.552500", "104705.552500", "104707.552500", "104709.552500", "104711.552500", "104713.552500", "104715.552500", "104717.552500", "104719.552500", "104721.552500", "104723.552500", "104725.552500", "104727.552500", "104729.552500", "104731.552500", "104733.552500", "104735.552500", "104737.552500", "104739.552500", "104741.552500", "104743.552500", "104745.552500", "104747.552500", "104749.552500", "104751.552500", "104753.552500", "104755.552500", "104757.552500", "104759.552500", "104801.552500", "104803.552500", "104805.552500", "104807.552500", "104809.552500", "104811.552500", "104813.552500", "104815.552500", "104817.552500", "104819.552500", "104821.552500", "104823.552500", "104825.552500", "104827.552500", "104829.552500", "104831.552500", "104833.552500", "104835.552500", "104837.552500", "104839.552500", "104841.552500", "104843.552500", "104845.552500", "104847.552500", "104849.552500", "104851.552500", "104853.552500", "104855.552500"],
      "ContentTime": ["104157.027000", "104157.032000", "104157.035000", "104157.038000", "104157.042000", "104157.045000", "104157.048000", "104157.051000", "104157.054000", "104157.057000", "104157.060000", "104157.063000", "104157.066000", "104157.069000", "104157.072000", "104157.076000", "104157.079000", "104157.088000", "104157.091000", "104157.094000", "104157.102000", "104157.105000", "104157.108000", "104157.111000", "104157.115000", "104157.118000", "104157.121000", "104237.016000", "104237.019000", "104237.023000", "104237.026000", "104237.029000", "104237.032000", "104237.035000", "104237.039000", "104237.042000", "104237.045000", "104237.048000", "104237.051000", "104237.055000", "104237.058000", "104237.061000", "104237.064000", "104237.068000", "104237.071000", "104237.074000", "104237.077000", "104317.016000", "104317.019000", "104317.022000", "104317.025000", "104317.036000", "104317.039000", "104317.042000", "104317.045000", "104317.048000", "104317.051000", "104317.054000", "104317.072000", "104317.083000", "104317.086000", "104317.089000", "104317.092000", "104317.096000", "104317.099000", "104317.102000", "104317.105000", "104357.016000", "104357.020000", "104357.023000", "104357.026000", "104357.029000", "104357.032000", "104357.035000", "104357.038000", "104357.042000", "104357.045000", "104357.048000", "104357.051000", "104357.055000", "104357.058000", "104357.061000", "104357.064000", "104357.067000", "104357.070000", "104357.073000", "104357.076000", "104437.016000", "104437.020000", "104437.023000", "104437.027000", "104437.030000", "104437.034000", "104437.037000", "104437.040000", "104437.043000", "104437.046000", "104437.051000", "104437.054000", "104437.058000", "104437.061000", "104437.064000", "104437.067000", "104437.071000", "104437.074000", "104437.077000", "104437.080000", "104537.016000", "104537.019000", "104537.022000", "104537.025000", "104537.029000", "104537.032000", "104537.035000", "104537.038000", "104537.041000", "104537.044000", "104537.048000", "104537.051000", "104537.054000", "104537.057000", "104537.060000", "104537.063000", "104537.066000", "104537.069000", "104537.072000", "104537.075000", "104537.079000", "104537.082000", "104537.085000", "104537.088000", "104537.091000", "104537.094000", "104537.097000", "104537.100000", "104537.104000", "104537.107000", "104617.016000", "104617.019000", "104617.023000", "104617.026000", "104617.029000", "104617.032000", "104617.035000", "104617.038000", "104617.041000", "104617.044000", "104617.047000", "104617.050000", "104617.053000", "104617.057000", "104617.060000", "104617.063000", "104617.066000", "104617.069000", "104617.072000", "104617.075000", "104657.016000", "104657.019000", "104657.023000", "104657.026000", "104657.029000", "104657.032000", "104657.036000", "104657.040000", "104657.047000", "104657.050000", "104657.053000", "104657.056000", "104657.059000", "104657.062000", "104657.065000", "104657.069000", "104657.072000", "104657.075000", "104657.078000", "104657.081000", "104737.017000", "104737.020000", "104737.023000", "104737.027000", "104737.030000", "104737.033000", "104737.036000", "104737.039000", "104737.042000", "104737.046000", "104737.049000", "104737.052000", "104737.057000", "104737.060000", "104737.063000", "104737.068000", "104737.071000", "104737.074000", "104737.077000", "104737.080000", "104817.016000", "104817.020000", "104817.023000", "104817.026000", "104817.029000", "104817.032000", "104817.036000", "104817.039000", "104817.042000", "104817.045000", "104817.048000", "104817.052000", "104817.055000", "104817.058000", "104817.061000", "104817.064000", "104817.067000", "104817.070000", "104817.074000", "104817.077000", "104857.013000", "104857.016000", "104857.019000", "104857.023000", "104857.026000", "104857.029000", "104857.032000", "104857.035000", "104857.038000", "104857.042000", "104857.045000", "104857.049000", "104857.054000", "104857.057000", "104857.060000", "104857.063000", "104857.066000", "104857.069000", "104857.073000", "104857.076000"],
      "InstanceCreationTime": ["104157.027000", "104157.032000", "104157.035000", "104157.038000", "104157.042000", "104157.045000", "104157.048000", "104157.051000", "104157.054000", "104157.057000", "104157.060000", "104157.063000", "104157.066000", "104157.069000", "104157.072000", "104157.076000", "104157.079000", "104157.088000", "104157.091000", "104157.094000", "104157.102000", "104157.105000", "104157.108000", "104157.111000", "104157.115000", "104157.118000", "104157.121000", "104237.016000", "104237.019000", "104237.023000", "104237.026000", "104237.029000", "104237.032000", "104237.035000", "104237.039000", "104237.042000", "104237.045000", "104237.048000", "104237.051000", "104237.055000", "104237.058000", "104237.061000", "104237.064000", "104237.068000", "104237.071000", "104237.074000", "104237.077000", "104317.016000", "104317.019000", "104317.022000", "104317.025000", "104317.036000", "104317.039000", "104317.042000", "104317.045000", "104317.048000", "104317.051000", "104317.054000", "104317.072000", "104317.083000", "104317.086000", "104317.089000", "104317.092000", "104317.096000", "104317.099000", "104317.102000", "104317.105000", "104357.016000", "104357.020000", "104357.023000", "104357.026000", "104357.029000", "104357.032000", "104357.035000", "104357.038000", "104357.042000", "104357.045000", "104357.048000", "104357.051000", "104357.055000", "104357.058000", "104357.061000", "104357.064000", "104357.067000", "104357.070000", "104357.073000", "104357.076000", "104437.016000", "104437.020000", "104437.023000", "104437.027000", "104437.030000", "104437.034000", "104437.037000", "104437.040000", "104437.043000", "104437.046000", "104437.051000", "104437.054000", "104437.058000", "104437.061000", "104437.064000", "104437.067000", "104437.071000", "104437.074000", "104437.077000", "104437.080000", "104537.016000", "104537.019000", "104537.022000", "104537.025000", "104537.029000", "104537.032000", "104537.035000", "104537.038000", "104537.041000", "104537.044000", "104537.048000", "104537.051000", "104537.054000", "104537.057000", "104537.060000", "104537.063000", "104537.066000", "104537.069000", "104537.072000", "104537.075000", "104537.079000", "104537.082000", "104537.085000", "104537.088000", "104537.091000", "104537.094000", "104537.097000", "104537.100000", "104537.104000", "104537.107000", "104617.016000", "104617.019000", "104617.023000", "104617.026000", "104617.029000", "104617.032000", "104617.035000", "104617.038000", "104617.041000", "104617.044000", "104617.047000", "104617.050000", "104617.053000", "104617.057000", "104617.060000", "104617.063000", "104617.066000", "104617.069000", "104617.072000", "104617.075000", "104657.016000", "104657.019000", "104657.023000", "104657.026000", "104657.029000", "104657.032000", "104657.036000", "104657.040000", "104657.047000", "104657.050000", "104657.053000", "104657.056000", "104657.059000", "104657.062000", "104657.065000", "104657.069000", "104657.072000", "104657.075000", "104657.078000", "104657.081000", "104737.017000", "104737.020000", "104737.023000", "104737.027000", "104737.030000", "104737.033000", "104737.036000", "104737.039000", "104737.042000", "104737.046000", "104737.049000", "104737.052000", "104737.057000", "104737.060000", "104737.063000", "104737.068000", "104737.071000", "104737.074000", "104737.077000", "104737.080000", "104817.016000", "104817.020000", "104817.023000", "104817.026000", "104817.029000", "104817.032000", "104817.036000", "104817.039000", "104817.042000", "104817.045000", "104817.048000", "104817.052000", "104817.055000", "104817.058000", "104817.061000", "104817.064000", "104817.067000", "104817.070000", "104817.074000", "104817.077000", "104857.013000", "104857.016000", "104857.019000", "104857.023000", "104857.026000", "104857.029000", "104857.032000", "104857.035000", "104857.038000", "104857.042000", "104857.045000", "104857.049000", "104857.054000", "104857.057000", "104857.060000", "104857.063000", "104857.066000", "104857.069000", "104857.073000", "104857.076000"],
      "InstanceNumber": [1, 2, 3, 4, 5, 6, 7, 8, 9, 10, 11, 12, 13, 14, 15, 16, 17, 18, 19, 20, 21, 22, 23, 24, 25, 26, 27, 28, 29, 30, 31, 32, 33, 34, 35, 36, 37, 38, 39, 40, 41, 42, 43, 44, 45, 46, 47, 48, 49, 50, 51, 52, 53, 54, 55, 56, 57, 58, 59, 60, 61, 62, 63, 64, 65, 66, 67, 68, 69, 70, 71, 72, 73, 74, 75, 76, 77, 78, 79, 80, 81, 82, 83, 84, 85, 86, 87, 88, 89, 90, 91, 92, 93, 94, 95, 96, 97, 98, 99, 100, 101, 102, 103, 104, 105, 106, 107, 108, 109, 110, 111, 112, 113, 114, 115, 116, 117, 118, 119, 120, 121, 122, 123, 124, 125, 126, 127, 128, 129, 130, 131, 132, 133, 134, 135, 136, 137, 138, 139, 140, 141, 142, 143, 144, 145, 146, 147, 148, 149, 150, 151, 152, 153, 154, 155, 156, 157, 158, 159, 160, 161, 162, 163, 164, 165, 166, 167, 168, 169, 170, 171, 172, 173, 174, 175, 176, 177, 178, 179, 180, 181, 182, 183, 184, 185, 186, 187, 188, 189, 190, 191, 192, 193, 194, 195, 196, 197, 198, 199, 200, 201, 202, 203, 204, 205, 206, 207, 208, 209, 210, 211, 212, 213, 214, 215, 216, 217, 218, 219, 220, 221, 222, 223, 224, 225, 226, 227, 228, 229, 230, 231, 232, 233, 234, 235, 236, 237],
      "LargestImagePixelValue": [1628, 2133, 1761, 1687, 2683, 1708, 1921, 1734, 1635, 2100, 1733, 2145, 1635, 1619, 2191, 1779, 1698, 1862, 2165, 1782, 2173, 1653, 1557, 2252, 1732, 1552, 2262, 1710, 1749, 2477, 1706, 2252, 1704, 1596, 2472, 1749, 1636, 2608, 1771, 1951, 1882, 1652, 2276, 1744, 1583, 2126, 1721, 1758, 2444, 1721, 1699, 1979, 2533, 1712, 1964, 2046, 1688, 1651, 2077, 1706, 1683, 1664, 1670, 2289, 1746, 1696, 1707, 1745, 2284, 1681, 1693, 1761, 1817, 2218, 1672, 1752, 1567, 1996, 2220, 1755, 1763, 1566, 2274, 1711, 1760, 1571, 2145, 2094, 1715, 1705, 1678, 2291, 1714, 1667, 1638, 1949, 2169, 1663, 1688, 1754, 1565, 1913, 2115, 1719, 1555, 2174, 1740, 1734, 1564, 2435, 1706, 1740, 1593, 2185, 1742, 1731, 1654, 1908, 1725, 1667, 1705, 1588, 2147, 1647, 1632, 1963, 1714, 1689, 1741, 1890, 2117, 1711, 1660, 2036, 1825, 1712, 1869, 2225, 1709, 1749, 1573, 2163, 1734, 1754, 1702, 1553, 1900, 2038, 1707, 1699, 1577, 2175, 1720, 1703, 1639, 1617, 2192, 1682, 1724, 1761, 1974, 1686, 1736, 1712, 1844, 2187, 1701, 1726, 1698, 1701, 1655, 1915, 1899, 1747, 1746, 1646, 1732, 2175, 1697, 1718, 1696, 1600, 2113, 1864, 1693, 1694, 1715, 1703, 2389, 2418, 1777, 1600, 2158, 1695, 1667, 1683, 1818, 1878, 2024, 2091, 1746, 1724, 1578, 2181, 1744, 1698, 1667, 1638, 2041, 1721, 1706, 1701, 1581, 1831, 2189, 1712, 1673, 1665, 1608, 1605, 1576, 1557, 1780, 2288, 2298, 1710, 1773, 1907, 1960, 1928, 1850, 1703, 1593, 1604, 1997, 2023, 2191],
      "WindowCenter": [655.0, 657.0, 655.0, 654.0, 657.0, 654.0, 655.0, 655.0, 654.0, 656.0, 655.0, 656.0, 654.0, 654.0, 657.0, 655.0, 655.0, 655.0, 657.0, 655.0, 656.0, 654.0, 654.0, 657.0, 655.0, 653.0, 657.0, 655.0, 655.0, 658.0, 655.0, 657.0, 655.0, 655.0, 658.0, 655.0, 654.0, 658.0, 655.0, 656.0, 655.0, 654.0, 657.0, 655.0, 654.0, 657.0, 655.0, 655.0, 657.0, 655.0, 655.0, 657.0, 658.0, 655.0, 656.0, 656.0, 655.0, 655.0, 656.0, 655.0, 655.0, 655.0, 655.0, 658.0, 655.0, 655.0, 655.0, 655.0, 657.0, 655.0, 655.0, 656.0, 656.0, 657.0, 654.0, 655.0, 654.0, 656.0, 657.0, 655.0, 655.0, 654.0, 657.0, 655.0, 655.0, 654.0, 656.0, 657.0, 655.0, 654.0, 654.0, 657.0, 655.0, 655.0, 655.0, 656.0, 657.0, 654.0, 655.0, 655.0, 654.0, 656.0, 656.0, 655.0, 654.0, 656.0, 655.0, 655.0, 654.0, 657.0, 654.0, 655.0, 654.0, 656.0, 654.0, 655.0, 654.0, 655.0, 655.0, 655.0, 655.0, 654.0, 656.0, 654.0, 654.0, 655.0, 655.0, 655.0, 655.0, 656.0, 656.0, 655.0, 655.0, 657.0, 655.0, 655.0, 655.0, 656.0, 654.0, 655.0, 654.0, 656.0, 654.0, 655.0, 654.0, 654.0, 656.0, 657.0, 655.0, 655.0, 654.0, 656.0, 654.0, 654.0, 654.0, 654.0, 657.0, 654.0, 654.0, 655.0, 656.0, 656.0, 655.0, 655.0, 655.0, 657.0, 655.0, 655.0, 655.0, 655.0, 655.0, 656.0, 656.0, 656.0, 655.0, 655.0, 655.0, 657.0, 655.0, 655.0, 655.0, 654.0, 656.0, 655.0, 655.0, 656.0, 656.0, 655.0, 657.0, 656.0, 654.0, 653.0, 656.0, 654.0, 655.0, 655.0, 656.0, 655.0, 656.0, 657.0, 655.0, 655.0, 654.0, 656.0, 655.0, 655.0, 655.0, 654.0, 656.0, 655.0, 654.0, 654.0, 653.0, 655.0, 657.0, 655.0, 655.0, 655.0, 655.0, 655.0, 655.0, 655.0, 657.0, 659.0, 658.0, 655.0, 655.0, 655.0, 656.0, 656.0, 656.0, 655.0, 654.0, 654.0, 657.0, 656.0, 657.0],
      "WindowWidth": [1419.0, 1424.0, 1421.0, 1418.0, 1425.0, 1417.0, 1421.0, 1420.0, 1418.0, 1423.0, 1419.0, 1423.0, 1417.0, 1418.0, 1424.0, 1419.0, 1419.0, 1420.0, 1424.0, 1420.0, 1423.0, 1417.0, 1416.0, 1425.0, 1419.0, 1416.0, 1426.0, 1421.0, 1421.0, 1427.0, 1419.0, 1425.0, 1420.0, 1419.0, 1427.0, 1420.0, 1419.0, 1427.0, 1420.0, 1423.0, 1421.0, 1418.0, 1425.0, 1419.0, 1418.0, 1425.0, 1420.0, 1421.0, 1426.0, 1419.0, 1421.0, 1425.0, 1428.0, 1420.0, 1422.0, 1424.0, 1419.0, 1419.0, 1423.0, 1421.0, 1421.0, 1421.0, 1421.0, 1427.0, 1421.0, 1420.0, 1421.0, 1420.0, 1425.0, 1419.0, 1421.0, 1422.0, 1421.0, 1425.0, 1418.0, 1420.0, 1418.0, 1422.0, 1425.0, 1420.0, 1420.0, 1417.0, 1426.0, 1420.0, 1420.0, 1418.0, 1424.0, 1424.0, 1420.0, 1419.0, 1418.0, 1424.0, 1419.0, 1419.0, 1419.0, 1422.0, 1425.0, 1418.0, 1419.0, 1421.0, 1418.0, 1421.0, 1423.0, 1419.0, 1418.0, 1424.0, 1419.0, 1419.0, 1417.0, 1425.0, 1418.0, 1419.0, 1418.0, 1423.0, 1418.0, 1419.0, 1417.0, 1420.0, 1420.0, 1419.0, 1420.0, 1418.0, 1423.0, 1416.0, 1416.0, 1421.0, 1419.0, 1420.0, 1420.0, 1421.0, 1423.0, 1420.0, 1420.0, 1424.0, 1421.0, 1419.0, 1421.0, 1423.0, 1418.0, 1420.0, 1418.0, 1423.0, 1419.0, 1419.0, 1419.0, 1418.0, 1422.0, 1425.0, 1421.0, 1420.0, 1416.0, 1423.0, 1418.0, 1417.0, 1417.0, 1418.0, 1425.0, 1418.0, 1418.0, 1419.0, 1424.0, 1422.0, 1420.0, 1420.0, 1419.0, 1424.0, 1420.0, 1421.0, 1421.0, 1420.0, 1419.0, 1422.0, 1423.0, 1423.0, 1421.0, 1420.0, 1420.0, 1425.0, 1420.0, 1421.0, 1420.0, 1418.0, 1422.0, 1420.0, 1420.0, 1422.0, 1422.0, 1421.0, 1426.0, 1423.0, 1417.0, 1414.0, 1422.0, 1419.0, 1421.0, 1421.0, 1421.0, 1421.0, 1423.0, 1425.0, 1421.0, 1420.0, 1416.0, 1423.0, 1419.0, 1420.0, 1420.0, 1419.0, 1423.0, 1420.0, 1418.0, 1419.0, 1416.0, 1420.0, 1425.0, 1421.0, 1420.0, 1420.0, 1419.0, 1419.0, 1419.0, 1420.0, 1425.0, 1430.0, 1428.0, 1420.0, 1420.0, 1421.0, 1423.0, 1424.0, 1423.0, 1420.0, 1417.0, 1418.0, 1424.0, 1423.0, 1424.0]
    },
    "slices": {}
  }
}