{
  "AcquisitionMatrixPE": 70,
  "AcquisitionNumber": 1,
  "AcquisitionTime": "11:37:39.380000",
  "BandwidthPerPixelPhaseEncode": 38.873,
  "BaseResolution": 70,
  "BodyPartExamined": "HEAD",
  "ConsistencyInfo": "N4_VE11B_LATEST_20150530",
  "ConversionSoftware": "dcm2niix",
  "ConversionSoftwareVersion": "v1.0.20190410  GCC6.3.0",
  "DerivedVendorReportedEchoSpacing": 0.000489996,
  "DeviceSerialNumber": "66088",
  "DwellTime": 2.9e-06,
  "EchoTime": 0.03,
  "EchoTrainLength": 53,
  "EffectiveEchoSpacing": 0.000367497,
  "FlipAngle": 90,
  "ImageOrientationPatientDICOM": [0.989739, -0.0919915, 0.109338, 0.123279, 0.936638, -0.327889],
  "ImageType": [
    "ORIGINAL",
    "PRIMARY",
    "M",
    "ND",
    "NORM",
    "MOSAIC"
],
  "ImagingFrequency": 123.191,
  "InPlanePhaseEncodingDirectionDICOM": "COL",
  "InstitutionAddress": "Street_StreetNo_City_District_IR_ZIP",
  "InstitutionName": "NBML",
  "InstitutionalDepartmentName": "Department",
  "MRAcquisitionType": "2D",
  "MagneticFieldStrength": 3,
  "Manufacturer": "Siemens",
  "ManufacturersModelName": "Prisma",
  "Modality": "MR",
  "ParallelReductionFactorInPlane": 2,
  "PartialFourier": 1,
  "PatientPosition": "HFS",
  "PercentPhaseFOV": 100,
  "PhaseEncodingDirection": "j-",
  "PhaseEncodingSteps": 105,
  "PhaseOversampling": 0.5,
  "PhaseResolution": 1,
  "PixelBandwidth": 2465,
  "ProcedureStepDescription": "NBML_Project_P-96169-Ebrahiminiya",
  "ProtocolName": "ep2d_p2_Task_3.5_measurment:237",
  "PulseSequenceDetails": "%SiemensSeq%_ep2d_pace",
  "ReceiveCoilActiveElements": "HC1-7;NC1",
  "ReceiveCoilName": "HeadNeck_64",
  "ReconMatrixPE": 70,
  "RefLinesPE": 24,
  "RepetitionTime": 2,
  "SAR": 0.0899495,
  "ScanOptions": "FS",
  "ScanningSequence": "EP",
  "SequenceName": "_epfid2d1_70",
  "SequenceVariant": "SK_OSP",
  "SeriesDescription": "ep2d_p2_Task_3.5_measurment:237",
  "SeriesNumber": 9,
  "ShimSetting": [2618, -4469, -3279, 350, 13, 32, -4, -28],
  "SliceThickness": 3.5,
  "SliceTiming": [0.99, 0, 1.0475, 0.0575, 1.105, 0.115, 1.1625, 0.1725, 1.2225, 0.2325, 1.28, 0.29, 1.3375, 0.3475, 1.3975, 0.4075, 1.455, 0.465, 1.5125, 0.5225, 1.5725, 0.5825, 1.63, 0.64, 1.6875, 0.6975, 1.745, 0.755, 1.805, 0.815, 1.8625, 0.8725, 1.92, 0.93],
  "SoftwareVersions": "syngo_MR_E11",
  "SpacingBetweenSlices": 3.85,
  "StationName": "AWP66088",
  "TaskName": "categorySelectivity",
  "TotalReadoutTime": 0.0253573,
  "TxRefAmp": 245.786,
  "dcmmeta_affine": [
    [-3.506502866744995, 0.4367583096027374, 0.27815136313438416, 109.27909851074219],
    [0.3259128928184509, 3.3183751106262207, -1.3013149499893188, -111.13227081298828],
    [0.3873690068721771, 1.1616653203964233, 3.612715244293213, -105.02293395996094],
    [0.0, 0.0, 0.0, 1.0]
],
  "dcmmeta_reorient_transform": [
    [0.0, -1.0, 0.0, 69.0],
    [1.0, 0.0, 0.0, 0.0],
    [0.0, 0.0, 1.0, 0.0],
    [0.0, 0.0, 0.0, 1.0]
],
  "dcmmeta_shape": [70, 70, 34, 237],
  "dcmmeta_slice_dim": 2,
  "dcmmeta_version": 0.6,
  "global": {
    "const": {
      "AcquisitionMatrix": [70, 0, 0, 70],
      "AngioFlag": "N",
      "BitsAllocated": 16,
      "BitsStored": 12,
      "BodyPartExamined": "HEAD",
      "Columns": 420,
      "EchoNumbers": 1,
      "EchoTime": 30.0,
      "EchoTrainLength": 53,
      "FlipAngle": 90.0,
      "HighBit": 11,
      "ImageOrientationPatient": [0.98973872965766, -0.0919915377268, 0.10933802633262, 0.12327855493702, 0.93663810040153, -0.3278894124074],
      "ImagePositionPatient": [-829.48614710636, -641.51647945471, 110.63383725701],
      "ImageType": [
        "ORIGINAL",
        "PRIMARY",
        "M",
        "ND",
        "NORM",
        "MOSAIC"
],
      "ImagedNucleus": "1H",
      "ImagingFrequency": 123.191154,
      "InPlanePhaseEncodingDirection": "COL",
      "MRAcquisitionType": "2D",
      "MagneticFieldStrength": 3.0,
      "Manufacturer": "SIEMENS",
      "ManufacturerModelName": "Prisma",
      "Modality": "MR",
      "NumberOfAverages": 1.0,
      "NumberOfPhaseEncodingSteps": 105,
      "PercentPhaseFieldOfView": 100.0,
      "PercentSampling": 100.0,
      "PerformedProcedureStepStartTime": "103346.712000",
      "PhotometricInterpretation": "MONOCHROME2",
      "PixelBandwidth": 2465.0,
      "PixelRepresentation": 0,
      "PixelSpacing": [3.542857170105, 3.542857170105],
      "ProtocolName": "ep2d_p2_Task_3.5_measurment:237",
      "RepetitionTime": 2000.0,
      "Rows": 420,
      "SAR": 0.089949506092,
      "SamplesPerPixel": 1,
      "ScanOptions": "FS",
      "ScanningSequence": "EP",
      "SequenceName": "*epfid2d1_70",
      "SequenceVariant": [
        "SK",
        "OSP"
],
      "SeriesDescription": "ep2d_p2_Task_3.5_measurment:237",
      "SeriesNumber": 9,
      "SeriesTime": "113837.018000",
      "SliceLocation": -53.091878053948,
      "SliceThickness": 3.5,
      "SmallestImagePixelValue": 0,
      "SoftwareVersions": "syngo MR E11",
      "SpacingBetweenSlices": 3.8499999692343,
      "SpecificCharacterSet": "ISO_IR 100",
      "StudyID": "1",
      "StudyTime": "103346.645000",
      "TransmitCoilName": "Body",
      "VariableFlipAngleFlag": "N",
      "WindowCenterWidthExplanation": "Algo1",
      "dBdt": 0.0},
    "slices": {}
  },
  "time": {
    "samples": {
      "AcquisitionNumber": [1, 2, 3, 4, 5, 6, 7, 8, 9, 10, 11, 12, 13, 14, 15, 16, 17, 18, 19, 20, 21, 22, 23, 24, 25, 26, 27, 28, 29, 30, 31, 32, 33, 34, 35, 36, 37, 38, 39, 40, 41, 42, 43, 44, 45, 46, 47, 48, 49, 50, 51, 52, 53, 54, 55, 56, 57, 58, 59, 60, 61, 62, 63, 64, 65, 66, 67, 68, 69, 70, 71, 72, 73, 74, 75, 76, 77, 78, 79, 80, 81, 82, 83, 84, 85, 86, 87, 88, 89, 90, 91, 92, 93, 94, 95, 96, 97, 98, 99, 100, 101, 102, 103, 104, 105, 106, 107, 108, 109, 110, 111, 112, 113, 114, 115, 116, 117, 118, 119, 120, 121, 122, 123, 124, 125, 126, 127, 128, 129, 130, 131, 132, 133, 134, 135, 136, 137, 138, 139, 140, 141, 142, 143, 144, 145, 146, 147, 148, 149, 150, 151, 152, 153, 154, 155, 156, 157, 158, 159, 160, 161, 162, 163, 164, 165, 166, 167, 168, 169, 170, 171, 172, 173, 174, 175, 176, 177, 178, 179, 180, 181, 182, 183, 184, 185, 186, 187, 188, 189, 190, 191, 192, 193, 194, 195, 196, 197, 198, 199, 200, 201, 202, 203, 204, 205, 206, 207, 208, 209, 210, 211, 212, 213, 214, 215, 216, 217, 218, 219, 220, 221, 222, 223, 224, 225, 226, 227, 228, 229, 230, 231, 232, 233, 234, 235, 236, 237],
      "AcquisitionTime": ["113739.380000", "113741.380000", "113743.380000", "113745.380000", "113747.380000", "113749.380000", "113751.380000", "113753.380000", "113755.380000", "113757.380000", "113759.380000", "113801.380000", "113803.380000", "113805.380000", "113807.380000", "113809.380000", "113811.380000", "113813.380000", "113815.380000", "113817.380000", "113819.380000", "113821.380000", "113823.380000", "113825.380000", "113827.380000", "113829.380000", "113831.380000", "113833.380000", "113835.380000", "113837.380000", "113839.380000", "113841.380000", "113843.380000", "113845.380000", "113847.380000", "113849.380000", "113851.380000", "113853.380000", "113855.380000", "113857.380000", "113859.380000", "113901.380000", "113903.380000", "113905.380000", "113907.380000", "113909.380000", "113911.380000", "113913.380000", "113915.380000", "113917.380000", "113919.380000", "113921.380000", "113923.380000", "113925.380000", "113927.380000", "113929.380000", "113931.380000", "113933.380000", "113935.380000", "113937.380000", "113939.380000", "113941.380000", "113943.380000", "113945.380000", "113947.380000", "113949.380000", "113951.380000", "113953.380000", "113955.380000", "113957.380000", "113959.380000", "114001.380000", "114003.380000", "114005.380000", "114007.380000", "114009.380000", "114011.380000", "114013.380000", "114015.380000", "114017.380000", "114019.380000", "114021.380000", "114023.380000", "114025.380000", "114027.380000", "114029.380000", "114031.380000", "114033.380000", "114035.380000", "114037.380000", "114039.380000", "114041.380000", "114043.380000", "114045.380000", "114047.380000", "114049.380000", "114051.380000", "114053.380000", "114055.380000", "114057.380000", "114059.380000", "114101.380000", "114103.380000", "114105.380000", "114107.380000", "114109.380000", "114111.380000", "114113.380000", "114115.380000", "114117.380000", "114119.380000", "114121.380000", "114123.380000", "114125.380000", "114127.380000", "114129.380000", "114131.380000", "114133.380000", "114135.380000", "114137.380000", "114139.380000", "114141.380000", "114143.380000", "114145.380000", "114147.380000", "114149.380000", "114151.380000", "114153.380000", "114155.380000", "114157.380000", "114159.380000", "114201.380000", "114203.380000", "114205.380000", "114207.380000", "114209.380000", "114211.380000", "114213.380000", "114215.380000", "114217.380000", "114219.380000", "114221.380000", "114223.380000", "114225.380000", "114227.380000", "114229.380000", "114231.380000", "114233.380000", "114235.380000", "114237.380000", "114239.380000", "114241.380000", "114243.380000", "114245.380000", "114247.380000", "114249.380000", "114251.380000", "114253.380000", "114255.380000", "114257.380000", "114259.380000", "114301.380000", "114303.380000", "114305.380000", "114307.380000", "114309.380000", "114311.380000", "114313.380000", "114315.380000", "114317.380000", "114319.380000", "114321.380000", "114323.380000", "114325.380000", "114327.380000", "114329.380000", "114331.380000", "114333.380000", "114335.380000", "114337.380000", "114339.380000", "114341.380000", "114343.380000", "114345.380000", "114347.380000", "114349.380000", "114351.380000", "114353.380000", "114355.380000", "114357.380000", "114359.380000", "114401.380000", "114403.380000", "114405.380000", "114407.380000", "114409.380000", "114411.380000", "114413.380000", "114415.380000", "114417.380000", "114419.380000", "114421.380000", "114423.380000", "114425.380000", "114427.380000", "114429.380000", "114431.380000", "114433.380000", "114435.380000", "114437.380000", "114439.380000", "114441.380000", "114443.380000", "114445.380000", "114447.380000", "114449.380000", "114451.380000", "114453.380000", "114455.380000", "114457.380000", "114459.380000", "114501.380000", "114503.380000", "114505.380000", "114507.380000", "114509.380000", "114511.380000", "114513.380000", "114515.380000", "114517.380000", "114519.380000", "114521.380000", "114523.380000", "114525.380000", "114527.380000", "114529.380000", "114531.380000"],
      "ContentTime": ["113837.023000", "113837.027000", "113837.030000", "113837.034000", "113837.037000", "113837.040000", "113837.043000", "113837.046000", "113837.049000", "113837.052000", "113837.055000", "113837.059000", "113837.062000", "113837.072000", "113837.075000", "113837.079000", "113837.084000", "113837.087000", "113837.090000", "113837.093000", "113837.097000", "113837.100000", "113837.103000", "113837.106000", "113837.109000", "113837.112000", "113837.115000", "113837.118000", "113917.016000", "113917.018000", "113917.021000", "113917.024000", "113917.026000", "113917.029000", "113917.031000", "113917.034000", "113917.037000", "113917.039000", "113917.042000", "113917.044000", "113917.047000", "113917.058000", "113917.061000", "113917.063000", "113917.066000", "113917.068000", "113917.071000", "113917.074000", "113957.016000", "113957.019000", "113957.023000", "113957.026000", "113957.029000", "113957.032000", "113957.035000", "113957.039000", "113957.042000", "113957.045000", "113957.049000", "113957.052000", "113957.055000", "113957.058000", "113957.061000", "113957.064000", "113957.067000", "113957.070000", "113957.074000", "113957.077000", "114037.017000", "114037.021000", "114037.024000", "114037.027000", "114037.030000", "114037.033000", "114037.045000", "114037.048000", "114037.051000", "114037.054000", "114037.064000", "114037.067000", "114037.070000", "114037.073000", "114037.076000", "114037.079000", "114037.082000", "114037.085000", "114037.089000", "114037.092000", "114117.016000", "114117.019000", "114117.022000", "114117.024000", "114117.027000", "114117.030000", "114117.032000", "114117.035000", "114117.037000", "114117.040000", "114117.043000", "114117.051000", "114117.054000", "114117.056000", "114117.059000", "114117.062000", "114117.064000", "114117.067000", "114117.069000", "114117.072000", "114157.016000", "114157.019000", "114157.023000", "114157.026000", "114157.029000", "114157.032000", "114157.035000", "114157.039000", "114157.042000", "114157.045000", "114157.048000", "114157.051000", "114157.055000", "114157.058000", "114157.061000", "114157.064000", "114157.067000", "114157.070000", "114157.074000", "114157.077000", "114237.016000", "114237.019000", "114237.023000", "114237.026000", "114237.029000", "114237.032000", "114237.035000", "114237.039000", "114237.042000", "114237.045000", "114237.048000", "114237.051000", "114237.055000", "114237.058000", "114237.061000", "114237.064000", "114237.067000", "114237.070000", "114237.074000", "114237.077000", "114317.016000", "114317.019000", "114317.022000", "114317.025000", "114317.029000", "114317.032000", "114317.035000", "114317.038000", "114317.041000", "114317.044000", "114317.047000", "114317.051000", "114317.054000", "114317.057000", "114317.060000", "114317.063000", "114317.066000", "114317.069000", "114317.072000", "114317.076000", "114357.016000", "114357.020000", "114357.023000", "114357.026000", "114357.030000", "114357.033000", "114357.036000", "114357.039000", "114357.043000", "114357.046000", "114357.049000", "114357.052000", "114357.056000", "114357.059000", "114357.062000", "114357.065000", "114357.069000", "114357.072000", "114357.075000", "114357.078000", "114437.016000", "114437.020000", "114437.023000", "114437.026000", "114437.029000", "114437.032000", "114437.045000", "114437.048000", "114437.051000", "114437.054000", "114437.058000", "114437.061000", "114437.064000", "114437.067000", "114437.070000", "114437.073000", "114437.076000", "114437.079000", "114437.083000", "114437.086000", "114517.016000", "114517.020000", "114517.023000", "114517.026000", "114517.029000", "114517.032000", "114517.036000", "114517.039000", "114517.042000", "114517.045000", "114517.049000", "114517.052000", "114517.055000", "114517.058000", "114517.062000", "114517.065000", "114517.068000", "114517.071000", "114517.076000", "114517.079000", "114533.270000", "114533.276000", "114533.280000", "114533.284000", "114533.287000", "114533.293000", "114533.298000", "114533.302000", "114533.307000"],
      "InstanceCreationTime": ["113837.023000", "113837.027000", "113837.030000", "113837.034000", "113837.037000", "113837.040000", "113837.043000", "113837.046000", "113837.049000", "113837.052000", "113837.055000", "113837.059000", "113837.062000", "113837.072000", "113837.075000", "113837.079000", "113837.084000", "113837.087000", "113837.090000", "113837.093000", "113837.097000", "113837.100000", "113837.103000", "113837.106000", "113837.109000", "113837.112000", "113837.115000", "113837.118000", "113917.016000", "113917.018000", "113917.021000", "113917.024000", "113917.026000", "113917.029000", "113917.031000", "113917.034000", "113917.037000", "113917.039000", "113917.042000", "113917.044000", "113917.047000", "113917.058000", "113917.061000", "113917.063000", "113917.066000", "113917.068000", "113917.071000", "113917.074000", "113957.016000", "113957.019000", "113957.023000", "113957.026000", "113957.029000", "113957.032000", "113957.035000", "113957.039000", "113957.042000", "113957.045000", "113957.049000", "113957.052000", "113957.055000", "113957.058000", "113957.061000", "113957.064000", "113957.067000", "113957.070000", "113957.074000", "113957.077000", "114037.017000", "114037.021000", "114037.024000", "114037.027000", "114037.030000", "114037.033000", "114037.045000", "114037.048000", "114037.051000", "114037.054000", "114037.064000", "114037.067000", "114037.070000", "114037.073000", "114037.076000", "114037.079000", "114037.082000", "114037.085000", "114037.089000", "114037.092000", "114117.016000", "114117.019000", "114117.022000", "114117.024000", "114117.027000", "114117.030000", "114117.032000", "114117.035000", "114117.037000", "114117.040000", "114117.043000", "114117.051000", "114117.054000", "114117.056000", "114117.059000", "114117.062000", "114117.064000", "114117.067000", "114117.069000", "114117.072000", "114157.016000", "114157.019000", "114157.023000", "114157.026000", "114157.029000", "114157.032000", "114157.035000", "114157.039000", "114157.042000", "114157.045000", "114157.048000", "114157.051000", "114157.055000", "114157.058000", "114157.061000", "114157.064000", "114157.067000", "114157.070000", "114157.074000", "114157.077000", "114237.016000", "114237.019000", "114237.023000", "114237.026000", "114237.029000", "114237.032000", "114237.035000", "114237.039000", "114237.042000", "114237.045000", "114237.048000", "114237.051000", "114237.055000", "114237.058000", "114237.061000", "114237.064000", "114237.067000", "114237.070000", "114237.074000", "114237.077000", "114317.016000", "114317.019000", "114317.022000", "114317.025000", "114317.029000", "114317.032000", "114317.035000", "114317.038000", "114317.041000", "114317.044000", "114317.047000", "114317.051000", "114317.054000", "114317.057000", "114317.060000", "114317.063000", "114317.066000", "114317.069000", "114317.072000", "114317.076000", "114357.016000", "114357.020000", "114357.023000", "114357.026000", "114357.030000", "114357.033000", "114357.036000", "114357.039000", "114357.043000", "114357.046000", "114357.049000", "114357.052000", "114357.056000", "114357.059000", "114357.062000", "114357.065000", "114357.069000", "114357.072000", "114357.075000", "114357.078000", "114437.016000", "114437.020000", "114437.023000", "114437.026000", "114437.029000", "114437.032000", "114437.045000", "114437.048000", "114437.051000", "114437.054000", "114437.058000", "114437.061000", "114437.064000", "114437.067000", "114437.070000", "114437.073000", "114437.076000", "114437.079000", "114437.083000", "114437.086000", "114517.016000", "114517.020000", "114517.023000", "114517.026000", "114517.029000", "114517.032000", "114517.036000", "114517.039000", "114517.042000", "114517.045000", "114517.049000", "114517.052000", "114517.055000", "114517.058000", "114517.062000", "114517.065000", "114517.068000", "114517.071000", "114517.076000", "114517.079000", "114533.270000", "114533.276000", "114533.280000", "114533.284000", "114533.287000", "114533.293000", "114533.298000", "114533.302000", "114533.307000"],
      "InstanceNumber": [1, 2, 3, 4, 5, 6, 7, 8, 9, 10, 11, 12, 13, 14, 15, 16, 17, 18, 19, 20, 21, 22, 23, 24, 25, 26, 27, 28, 29, 30, 31, 32, 33, 34, 35, 36, 37, 38, 39, 40, 41, 42, 43, 44, 45, 46, 47, 48, 49, 50, 51, 52, 53, 54, 55, 56, 57, 58, 59, 60, 61, 62, 63, 64, 65, 66, 67, 68, 69, 70, 71, 72, 73, 74, 75, 76, 77, 78, 79, 80, 81, 82, 83, 84, 85, 86, 87, 88, 89, 90, 91, 92, 93, 94, 95, 96, 97, 98, 99, 100, 101, 102, 103, 104, 105, 106, 107, 108, 109, 110, 111, 112, 113, 114, 115, 116, 117, 118, 119, 120, 121, 122, 123, 124, 125, 126, 127, 128, 129, 130, 131, 132, 133, 134, 135, 136, 137, 138, 139, 140, 141, 142, 143, 144, 145, 146, 147, 148, 149, 150, 151, 152, 153, 154, 155, 156, 157, 158, 159, 160, 161, 162, 163, 164, 165, 166, 167, 168, 169, 170, 171, 172, 173, 174, 175, 176, 177, 178, 179, 180, 181, 182, 183, 184, 185, 186, 187, 188, 189, 190, 191, 192, 193, 194, 195, 196, 197, 198, 199, 200, 201, 202, 203, 204, 205, 206, 207, 208, 209, 210, 211, 212, 213, 214, 215, 216, 217, 218, 219, 220, 221, 222, 223, 224, 225, 226, 227, 228, 229, 230, 231, 232, 233, 234, 235, 236, 237],
      "LargestImagePixelValue": [1800, 1675, 2260, 1697, 1925, 2192, 1935, 2680, 1849, 1585, 2218, 1893, 1665, 2081, 1990, 1784, 1622, 2349, 1762, 2206, 1807, 1839, 1683, 1880, 1777, 1738, 2291, 2184, 2121, 1786, 1861, 1800, 1869, 1925, 1729, 2161, 1849, 1695, 2101, 1832, 1722, 1623, 2316, 1855, 1830, 1804, 1915, 2455, 1842, 1627, 1928, 1843, 1728, 1967, 2032, 1881, 1839, 1679, 2259, 1883, 1769, 1591, 2246, 1895, 1816, 1787, 1797, 2062, 2088, 1889, 1867, 1776, 1761, 1987, 2103, 1881, 1701, 1719, 2213, 1925, 1854, 1705, 1930, 2334, 1859, 1837, 1863, 1760, 1960, 2186, 1766, 1599, 2121, 1862, 1835, 1792, 2384, 1870, 1821, 1695, 1677, 2222, 1888, 1850, 1798, 1685, 1602, 2102, 2041, 2078, 2075, 1821, 1766, 1627, 1646, 1721, 1698, 1703, 2226, 2476, 2174, 1820, 1697, 1613, 1641, 1636, 1727, 2051, 2157, 2052, 2209, 1882, 1782, 1660, 1697, 2235, 1982, 1976, 1865, 1839, 1742, 1677, 1868, 2109, 2004, 2127, 1856, 1866, 1814, 1829, 1858, 1761, 1700, 1670, 1736, 2010, 2274, 1816, 1805, 1736, 1708, 1637, 1981, 2192, 2000, 1862, 1806, 1815, 1741, 1599, 2222, 2002, 1879, 1828, 1806, 1838, 1760, 1677, 1924, 2199, 2446, 1829, 1846, 1796, 1683, 1660, 1651, 2068, 2255, 2062, 1850, 1867, 1822, 1826, 1838, 1707, 1761, 2334, 1846, 1799, 1761, 1683, 1585, 2095, 2409, 1812, 1831, 1842, 1750, 1734, 1792, 2076, 1811, 1920, 2372, 2141, 1821, 1854, 1791, 1576, 1673, 1641, 1869, 2274, 1856, 1891, 1873, 1809, 1811, 1833, 2229, 1834, 1818, 1811, 1725, 1777, 2550],
      "WindowCenter": [661.0, 660.0, 663.0, 662.0, 662.0, 662.0, 659.0, 661.0, 658.0, 658.0, 660.0, 659.0, 658.0, 660.0, 659.0, 659.0, 658.0, 661.0, 658.0, 659.0, 657.0, 657.0, 657.0, 660.0, 661.0, 661.0, 662.0, 660.0, 659.0, 658.0, 659.0, 659.0, 659.0, 659.0, 659.0, 660.0, 659.0, 659.0, 660.0, 659.0, 659.0, 658.0, 662.0, 660.0, 660.0, 659.0, 659.0, 661.0, 659.0, 658.0, 659.0, 659.0, 659.0, 660.0, 660.0, 659.0, 659.0, 657.0, 660.0, 658.0, 658.0, 658.0, 660.0, 659.0, 659.0, 660.0, 659.0, 660.0, 660.0, 660.0, 659.0, 658.0, 658.0, 659.0, 659.0, 658.0, 658.0, 658.0, 661.0, 660.0, 660.0, 658.0, 659.0, 661.0, 659.0, 659.0, 658.0, 657.0, 658.0, 659.0, 657.0, 657.0, 660.0, 660.0, 659.0, 658.0, 660.0, 659.0, 659.0, 659.0, 659.0, 661.0, 659.0, 659.0, 659.0, 658.0, 658.0, 660.0, 660.0, 660.0, 660.0, 658.0, 658.0, 658.0, 658.0, 659.0, 659.0, 659.0, 661.0, 661.0, 660.0, 658.0, 657.0, 656.0, 657.0, 657.0, 659.0, 660.0, 660.0, 660.0, 661.0, 659.0, 658.0, 658.0, 659.0, 661.0, 660.0, 660.0, 659.0, 658.0, 658.0, 657.0, 658.0, 660.0, 659.0, 660.0, 659.0, 659.0, 659.0, 660.0, 659.0, 658.0, 658.0, 658.0, 659.0, 660.0, 661.0, 659.0, 659.0, 658.0, 658.0, 658.0, 659.0, 660.0, 660.0, 659.0, 658.0, 659.0, 658.0, 657.0, 660.0, 659.0, 659.0, 660.0, 660.0, 660.0, 659.0, 658.0, 659.0, 660.0, 660.0, 658.0, 658.0, 658.0, 658.0, 658.0, 658.0, 660.0, 660.0, 659.0, 658.0, 659.0, 659.0, 660.0, 660.0, 659.0, 659.0, 660.0, 659.0, 659.0, 658.0, 658.0, 658.0, 660.0, 661.0, 659.0, 659.0, 659.0, 659.0, 660.0, 660.0, 660.0, 658.0, 658.0, 660.0, 659.0, 658.0, 657.0, 657.0, 656.0, 657.0, 658.0, 658.0, 660.0, 658.0, 659.0, 659.0, 659.0, 659.0, 658.0, 660.0, 660.0, 660.0, 660.0, 660.0, 660.0, 662.0],
      "WindowWidth": [1437.0, 1434.0, 1441.0, 1439.0, 1440.0, 1438.0, 1431.0, 1436.0, 1430.0, 1427.0, 1435.0, 1431.0, 1429.0, 1433.0, 1432.0, 1430.0, 1428.0, 1437.0, 1429.0, 1432.0, 1426.0, 1426.0, 1427.0, 1434.0, 1436.0, 1436.0, 1438.0, 1434.0, 1432.0, 1429.0, 1431.0, 1431.0, 1432.0, 1432.0, 1430.0, 1433.0, 1431.0, 1430.0, 1434.0, 1432.0, 1431.0, 1430.0, 1438.0, 1433.0, 1432.0, 1431.0, 1432.0, 1436.0, 1430.0, 1429.0, 1432.0, 1432.0, 1432.0, 1434.0, 1435.0, 1432.0, 1430.0, 1427.0, 1432.0, 1430.0, 1429.0, 1427.0, 1435.0, 1432.0, 1432.0, 1433.0, 1431.0, 1433.0, 1433.0, 1432.0, 1431.0, 1430.0, 1429.0, 1431.0, 1431.0, 1429.0, 1429.0, 1430.0, 1436.0, 1435.0, 1433.0, 1429.0, 1430.0, 1436.0, 1432.0, 1430.0, 1429.0, 1427.0, 1429.0, 1431.0, 1427.0, 1426.0, 1434.0, 1433.0, 1431.0, 1429.0, 1434.0, 1430.0, 1431.0, 1431.0, 1431.0, 1437.0, 1432.0, 1431.0, 1430.0, 1429.0, 1428.0, 1434.0, 1434.0, 1434.0, 1433.0, 1428.0, 1428.0, 1427.0, 1428.0, 1431.0, 1431.0, 1431.0, 1435.0, 1437.0, 1433.0, 1428.0, 1425.0, 1424.0, 1426.0, 1427.0, 1430.0, 1434.0, 1435.0, 1434.0, 1436.0, 1431.0, 1429.0, 1429.0, 1430.0, 1436.0, 1433.0, 1434.0, 1431.0, 1429.0, 1427.0, 1427.0, 1428.0, 1432.0, 1431.0, 1433.0, 1430.0, 1430.0, 1432.0, 1433.0, 1432.0, 1429.0, 1429.0, 1429.0, 1430.0, 1433.0, 1436.0, 1431.0, 1430.0, 1428.0, 1428.0, 1428.0, 1432.0, 1434.0, 1433.0, 1431.0, 1429.0, 1430.0, 1429.0, 1426.0, 1433.0, 1431.0, 1432.0, 1433.0, 1434.0, 1433.0, 1431.0, 1429.0, 1430.0, 1432.0, 1435.0, 1428.0, 1427.0, 1428.0, 1429.0, 1429.0, 1429.0, 1434.0, 1434.0, 1432.0, 1430.0, 1430.0, 1430.0, 1432.0, 1432.0, 1430.0, 1430.0, 1434.0, 1430.0, 1430.0, 1429.0, 1428.0, 1428.0, 1433.0, 1436.0, 1430.0, 1431.0, 1432.0, 1432.0, 1433.0, 1432.0, 1434.0, 1428.0, 1429.0, 1434.0, 1431.0, 1427.0, 1426.0, 1425.0, 1423.0, 1426.0, 1427.0, 1429.0, 1433.0, 1429.0, 1431.0, 1432.0, 1431.0, 1431.0, 1429.0, 1433.0, 1433.0, 1433.0, 1435.0, 1435.0, 1433.0, 1438.0]
    },
    "slices": {}
  }
}