{
  "AcquisitionMatrixPE": 70,
  "AcquisitionNumber": 1,
  "AcquisitionTime": "11:26:45.392500",
  "BandwidthPerPixelPhaseEncode": 38.873,
  "BaseResolution": 70,
  "BodyPartExamined": "HEAD",
  "ConsistencyInfo": "N4_VE11B_LATEST_20150530",
  "ConversionSoftware": "dcm2niix",
  "ConversionSoftwareVersion": "v1.0.20190410  GCC6.3.0",
  "DerivedVendorReportedEchoSpacing": 0.000489996,
  "DeviceSerialNumber": "66088",
  "DwellTime": 2.9e-06,
  "EchoTime": 0.03,
  "EchoTrainLength": 53,
  "EffectiveEchoSpacing": 0.000367497,
  "FlipAngle": 90,
  "ImageOrientationPatientDICOM": [0.989739, -0.0919915, 0.109338, 0.123279, 0.936638, -0.327889],
  "ImageType": [
    "ORIGINAL",
    "PRIMARY",
    "M",
    "ND",
    "NORM",
    "MOSAIC"
],
  "ImagingFrequency": 123.191,
  "InPlanePhaseEncodingDirectionDICOM": "COL",
  "InstitutionAddress": "Street_StreetNo_City_District_IR_ZIP",
  "InstitutionName": "NBML",
  "InstitutionalDepartmentName": "Department",
  "MRAcquisitionType": "2D",
  "MagneticFieldStrength": 3,
  "Manufacturer": "Siemens",
  "ManufacturersModelName": "Prisma",
  "Modality": "MR",
  "ParallelReductionFactorInPlane": 2,
  "PartialFourier": 1,
  "PatientPosition": "HFS",
  "PercentPhaseFOV": 100,
  "PhaseEncodingDirection": "j-",
  "PhaseEncodingSteps": 105,
  "PhaseOversampling": 0.5,
  "PhaseResolution": 1,
  "PixelBandwidth": 2465,
  "ProcedureStepDescription": "NBML_Project_P-96169-Ebrahiminiya",
  "ProtocolName": "ep2d_p2_Task_3.5_measurment:237",
  "PulseSequenceDetails": "%SiemensSeq%_ep2d_pace",
  "ReceiveCoilActiveElements": "HC1-7;NC1",
  "ReceiveCoilName": "HeadNeck_64",
  "ReconMatrixPE": 70,
  "RefLinesPE": 24,
  "RepetitionTime": 2,
  "SAR": 0.0899495,
  "ScanOptions": "FS",
  "ScanningSequence": "EP",
  "SequenceName": "_epfid2d1_70",
  "SequenceVariant": "SK_OSP",
  "SeriesDescription": "ep2d_p2_Task_3.5_measurment:237",
  "SeriesNumber": 8,
  "ShimSetting": [2618, -4469, -3279, 350, 13, 32, -4, -28],
  "SliceThickness": 3.5,
  "SliceTiming": [0.99, 0, 1.0475, 0.0575, 1.105, 0.1175, 1.165, 0.175, 1.2225, 0.2325, 1.28, 0.29, 1.34, 0.35, 1.3975, 0.4075, 1.455, 0.465, 1.515, 0.525, 1.5725, 0.5825, 1.63, 0.64, 1.6875, 0.6975, 1.7475, 0.7575, 1.805, 0.815, 1.8625, 0.8725, 1.9225, 0.9325],
  "SoftwareVersions": "syngo_MR_E11",
  "SpacingBetweenSlices": 3.85,
  "StationName": "AWP66088",
  "TaskName": "categorySelectivity",
  "TotalReadoutTime": 0.0253573,
  "TxRefAmp": 245.786,
  "dcmmeta_affine": [
    [-3.506502866744995, 0.4367583096027374, 0.27815136313438416, 109.27909851074219],
    [0.3259128928184509, 3.3183751106262207, -1.3013149499893188, -111.13227081298828],
    [0.3873690068721771, 1.1616653203964233, 3.612715244293213, -105.02293395996094],
    [0.0, 0.0, 0.0, 1.0]
],
  "dcmmeta_reorient_transform": [
    [0.0, -1.0, 0.0, 69.0],
    [1.0, 0.0, 0.0, 0.0],
    [0.0, 0.0, 1.0, 0.0],
    [0.0, 0.0, 0.0, 1.0]
],
  "dcmmeta_shape": [70, 70, 34, 237],
  "dcmmeta_slice_dim": 2,
  "dcmmeta_version": 0.6,
  "global": {
    "const": {
      "AcquisitionMatrix": [70, 0, 0, 70],
      "AngioFlag": "N",
      "BitsAllocated": 16,
      "BitsStored": 12,
      "BodyPartExamined": "HEAD",
      "Columns": 420,
      "EchoNumbers": 1,
      "EchoTime": 30.0,
      "EchoTrainLength": 53,
      "FlipAngle": 90.0,
      "HighBit": 11,
      "ImageOrientationPatient": [0.98973872965766, -0.0919915377268, 0.10933802633262, 0.12327855493702, 0.93663810040153, -0.3278894124074],
      "ImagePositionPatient": [-829.48614710636, -641.51647945471, 110.63383725701],
      "ImageType": [
        "ORIGINAL",
        "PRIMARY",
        "M",
        "ND",
        "NORM",
        "MOSAIC"
],
      "ImagedNucleus": "1H",
      "ImagingFrequency": 123.191154,
      "InPlanePhaseEncodingDirection": "COL",
      "MRAcquisitionType": "2D",
      "MagneticFieldStrength": 3.0,
      "Manufacturer": "SIEMENS",
      "ManufacturerModelName": "Prisma",
      "Modality": "MR",
      "NumberOfAverages": 1.0,
      "NumberOfPhaseEncodingSteps": 105,
      "PercentPhaseFieldOfView": 100.0,
      "PercentSampling": 100.0,
      "PerformedProcedureStepStartTime": "103346.712000",
      "PhotometricInterpretation": "MONOCHROME2",
      "PixelBandwidth": 2465.0,
      "PixelRepresentation": 0,
      "PixelSpacing": [3.542857170105, 3.542857170105],
      "ProtocolName": "ep2d_p2_Task_3.5_measurment:237",
      "RepetitionTime": 2000.0,
      "Rows": 420,
      "SAR": 0.089949506092,
      "SamplesPerPixel": 1,
      "ScanOptions": "FS",
      "ScanningSequence": "EP",
      "SequenceName": "*epfid2d1_70",
      "SequenceVariant": [
        "SK",
        "OSP"
],
      "SeriesDescription": "ep2d_p2_Task_3.5_measurment:237",
      "SeriesNumber": 8,
      "SeriesTime": "112734.853000",
      "SliceLocation": -53.091878053948,
      "SliceThickness": 3.5,
      "SmallestImagePixelValue": 0,
      "SoftwareVersions": "syngo MR E11",
      "SpacingBetweenSlices": 3.8499999692343,
      "SpecificCharacterSet": "ISO_IR 100",
      "StudyID": "1",
      "StudyTime": "103346.645000",
      "TransmitCoilName": "Body",
      "VariableFlipAngleFlag": "N",
      "WindowCenterWidthExplanation": "Algo1",
      "dBdt": 0.0},
    "slices": {}
  },
  "time": {
    "samples": {
      "AcquisitionNumber": [1, 2, 3, 4, 5, 6, 7, 8, 9, 10, 11, 12, 13, 14, 15, 16, 17, 18, 19, 20, 21, 22, 23, 24, 25, 26, 27, 28, 29, 30, 31, 32, 33, 34, 35, 36, 37, 38, 39, 40, 41, 42, 43, 44, 45, 46, 47, 48, 49, 50, 51, 52, 53, 54, 55, 56, 57, 58, 59, 60, 61, 62, 63, 64, 65, 66, 67, 68, 69, 70, 71, 72, 73, 74, 75, 76, 77, 78, 79, 80, 81, 82, 83, 84, 85, 86, 87, 88, 89, 90, 91, 92, 93, 94, 95, 96, 97, 98, 99, 100, 101, 102, 103, 104, 105, 106, 107, 108, 109, 110, 111, 112, 113, 114, 115, 116, 117, 118, 119, 120, 121, 122, 123, 124, 125, 126, 127, 128, 129, 130, 131, 132, 133, 134, 135, 136, 137, 138, 139, 140, 141, 142, 143, 144, 145, 146, 147, 148, 149, 150, 151, 152, 153, 154, 155, 156, 157, 158, 159, 160, 161, 162, 163, 164, 165, 166, 167, 168, 169, 170, 171, 172, 173, 174, 175, 176, 177, 178, 179, 180, 181, 182, 183, 184, 185, 186, 187, 188, 189, 190, 191, 192, 193, 194, 195, 196, 197, 198, 199, 200, 201, 202, 203, 204, 205, 206, 207, 208, 209, 210, 211, 212, 213, 214, 215, 216, 217, 218, 219, 220, 221, 222, 223, 224, 225, 226, 227, 228, 229, 230, 231, 232, 233, 234, 235, 236, 237],
      "AcquisitionTime": ["112645.392500", "112647.392500", "112649.392500", "112651.392500", "112653.392500", "112655.392500", "112657.392500", "112659.392500", "112701.392500", "112703.392500", "112705.392500", "112707.392500", "112709.392500", "112711.392500", "112713.392500", "112715.392500", "112717.392500", "112719.392500", "112721.392500", "112723.392500", "112725.392500", "112727.392500", "112729.392500", "112731.392500", "112733.392500", "112735.392500", "112737.392500", "112739.392500", "112741.392500", "112743.392500", "112745.392500", "112747.392500", "112749.392500", "112751.392500", "112753.392500", "112755.392500", "112757.392500", "112759.392500", "112801.392500", "112803.392500", "112805.392500", "112807.392500", "112809.392500", "112811.392500", "112813.392500", "112815.392500", "112817.392500", "112819.392500", "112821.392500", "112823.392500", "112825.392500", "112827.392500", "112829.392500", "112831.392500", "112833.392500", "112835.392500", "112837.392500", "112839.392500", "112841.392500", "112843.392500", "112845.392500", "112847.392500", "112849.392500", "112851.392500", "112853.392500", "112855.392500", "112857.392500", "112859.392500", "112901.392500", "112903.392500", "112905.392500", "112907.392500", "112909.392500", "112911.392500", "112913.392500", "112915.392500", "112917.392500", "112919.392500", "112921.392500", "112923.392500", "112925.392500", "112927.392500", "112929.392500", "112931.392500", "112933.392500", "112935.392500", "112937.392500", "112939.392500", "112941.392500", "112943.392500", "112945.392500", "112947.392500", "112949.392500", "112951.392500", "112953.392500", "112955.392500", "112957.392500", "112959.392500", "113001.392500", "113003.392500", "113005.392500", "113007.392500", "113009.392500", "113011.392500", "113013.392500", "113015.392500", "113017.392500", "113019.392500", "113021.392500", "113023.392500", "113025.392500", "113027.392500", "113029.392500", "113031.392500", "113033.392500", "113035.392500", "113037.392500", "113039.392500", "113041.392500", "113043.392500", "113045.392500", "113047.392500", "113049.392500", "113051.392500", "113053.392500", "113055.392500", "113057.392500", "113059.392500", "113101.392500", "113103.392500", "113105.392500", "113107.392500", "113109.392500", "113111.392500", "113113.392500", "113115.392500", "113117.392500", "113119.392500", "113121.392500", "113123.392500", "113125.392500", "113127.392500", "113129.392500", "113131.392500", "113133.392500", "113135.392500", "113137.392500", "113139.392500", "113141.392500", "113143.392500", "113145.392500", "113147.392500", "113149.392500", "113151.392500", "113153.392500", "113155.392500", "113157.392500", "113159.392500", "113201.392500", "113203.392500", "113205.392500", "113207.392500", "113209.392500", "113211.392500", "113213.392500", "113215.392500", "113217.392500", "113219.392500", "113221.392500", "113223.392500", "113225.392500", "113227.392500", "113229.392500", "113231.392500", "113233.392500", "113235.392500", "113237.392500", "113239.392500", "113241.392500", "113243.392500", "113245.392500", "113247.392500", "113249.392500", "113251.392500", "113253.392500", "113255.392500", "113257.392500", "113259.392500", "113301.392500", "113303.392500", "113305.392500", "113307.392500", "113309.392500", "113311.392500", "113313.392500", "113315.392500", "113317.392500", "113319.392500", "113321.392500", "113323.392500", "113325.392500", "113327.392500", "113329.392500", "113331.392500", "113333.392500", "113335.392500", "113337.392500", "113339.392500", "113341.392500", "113343.392500", "113345.392500", "113347.392500", "113349.392500", "113351.392500", "113353.392500", "113355.392500", "113357.392500", "113359.392500", "113401.392500", "113403.392500", "113405.392500", "113407.392500", "113409.392500", "113411.392500", "113413.392500", "113415.392500", "113417.392500", "113419.392500", "113421.392500", "113423.392500", "113425.392500", "113427.392500", "113429.392500", "113431.392500", "113433.392500", "113435.392500", "113437.392500"],
      "ContentTime": ["112734.859000", "112734.868000", "112734.871000", "112734.874000", "112734.877000", "112734.881000", "112734.884000", "112734.887000", "112734.890000", "112734.894000", "112734.897000", "112734.900000", "112734.903000", "112734.907000", "112734.910000", "112734.913000", "112734.916000", "112734.919000", "112734.922000", "112734.926000", "112734.929000", "112734.932000", "112734.935000", "112734.938000", "112814.849000", "112814.852000", "112814.855000", "112814.859000", "112814.870000", "112814.873000", "112814.878000", "112814.881000", "112814.885000", "112814.888000", "112814.900000", "112814.904000", "112814.911000", "112814.915000", "112814.918000", "112814.923000", "112814.927000", "112814.931000", "112814.934000", "112814.939000", "112854.848000", "112854.852000", "112854.855000", "112854.858000", "112854.868000", "112854.872000", "112854.875000", "112854.878000", "112854.881000", "112854.884000", "112854.887000", "112854.890000", "112854.894000", "112854.897000", "112854.900000", "112854.903000", "112854.906000", "112854.909000", "112854.912000", "112854.916000", "112914.848000", "112914.857000", "112914.860000", "112914.864000", "112914.867000", "112914.870000", "112914.873000", "112914.876000", "112914.879000", "112914.883000", "112954.850000", "112954.853000", "112954.857000", "112954.860000", "112954.863000", "112954.866000", "112954.870000", "112954.873000", "112954.876000", "112954.879000", "112954.883000", "112954.886000", "112954.889000", "112954.892000", "112954.896000", "112954.899000", "112954.902000", "112954.905000", "112954.908000", "112954.911000", "113034.848000", "113034.851000", "113034.854000", "113034.858000", "113034.861000", "113034.864000", "113034.867000", "113034.870000", "113034.874000", "113034.877000", "113034.880000", "113034.883000", "113034.886000", "113034.890000", "113034.893000", "113034.896000", "113034.899000", "113034.902000", "113034.906000", "113034.909000", "113114.848000", "113114.851000", "113114.854000", "113114.858000", "113114.861000", "113114.864000", "113114.867000", "113114.870000", "113114.873000", "113114.876000", "113114.879000", "113114.883000", "113114.886000", "113114.889000", "113114.892000", "113114.895000", "113114.898000", "113114.901000", "113114.905000", "113114.908000", "113154.849000", "113154.852000", "113154.856000", "113154.859000", "113154.862000", "113154.865000", "113154.868000", "113154.872000", "113154.875000", "113154.878000", "113154.881000", "113154.884000", "113154.888000", "113154.891000", "113154.894000", "113154.897000", "113154.900000", "113154.903000", "113154.907000", "113154.910000", "113234.848000", "113234.851000", "113234.855000", "113234.858000", "113234.861000", "113234.864000", "113234.867000", "113234.871000", "113234.874000", "113234.877000", "113234.880000", "113234.883000", "113234.886000", "113234.889000", "113234.893000", "113234.896000", "113234.899000", "113234.902000", "113234.905000", "113234.908000", "113314.849000", "113314.852000", "113314.855000", "113314.859000", "113314.862000", "113314.865000", "113314.868000", "113314.871000", "113314.874000", "113314.877000", "113314.881000", "113314.884000", "113314.887000", "113314.890000", "113314.894000", "113314.897000", "113314.900000", "113314.903000", "113314.906000", "113314.909000", "113354.848000", "113354.851000", "113354.855000", "113354.870000", "113354.873000", "113354.876000", "113354.879000", "113354.882000", "113354.885000", "113354.889000", "113354.892000", "113354.895000", "113354.898000", "113354.901000", "113354.904000", "113354.907000", "113354.910000", "113354.913000", "113354.916000", "113354.919000", "113434.849000", "113434.853000", "113434.856000", "113434.859000", "113434.862000", "113434.865000", "113434.868000", "113434.872000", "113434.875000", "113434.878000", "113434.881000", "113434.884000", "113434.887000", "113434.890000", "113434.894000", "113434.897000", "113434.900000", "113434.903000", "113434.906000", "113434.910000", "113439.066000", "113439.070000", "113439.073000"],
      "InstanceCreationTime": ["112734.859000", "112734.868000", "112734.871000", "112734.874000", "112734.877000", "112734.881000", "112734.884000", "112734.887000", "112734.890000", "112734.894000", "112734.897000", "112734.900000", "112734.903000", "112734.907000", "112734.910000", "112734.913000", "112734.916000", "112734.919000", "112734.922000", "112734.926000", "112734.929000", "112734.932000", "112734.935000", "112734.938000", "112814.849000", "112814.852000", "112814.855000", "112814.859000", "112814.870000", "112814.873000", "112814.878000", "112814.881000", "112814.885000", "112814.888000", "112814.900000", "112814.904000", "112814.911000", "112814.915000", "112814.918000", "112814.923000", "112814.927000", "112814.931000", "112814.934000", "112814.939000", "112854.848000", "112854.852000", "112854.855000", "112854.858000", "112854.868000", "112854.872000", "112854.875000", "112854.878000", "112854.881000", "112854.884000", "112854.887000", "112854.890000", "112854.894000", "112854.897000", "112854.900000", "112854.903000", "112854.906000", "112854.909000", "112854.912000", "112854.916000", "112914.848000", "112914.857000", "112914.860000", "112914.864000", "112914.867000", "112914.870000", "112914.873000", "112914.876000", "112914.879000", "112914.883000", "112954.850000", "112954.853000", "112954.857000", "112954.860000", "112954.863000", "112954.866000", "112954.870000", "112954.873000", "112954.876000", "112954.879000", "112954.883000", "112954.886000", "112954.889000", "112954.892000", "112954.896000", "112954.899000", "112954.902000", "112954.905000", "112954.908000", "112954.911000", "113034.848000", "113034.851000", "113034.854000", "113034.858000", "113034.861000", "113034.864000", "113034.867000", "113034.870000", "113034.874000", "113034.877000", "113034.880000", "113034.883000", "113034.886000", "113034.890000", "113034.893000", "113034.896000", "113034.899000", "113034.902000", "113034.906000", "113034.909000", "113114.848000", "113114.851000", "113114.854000", "113114.858000", "113114.861000", "113114.864000", "113114.867000", "113114.870000", "113114.873000", "113114.876000", "113114.879000", "113114.883000", "113114.886000", "113114.889000", "113114.892000", "113114.895000", "113114.898000", "113114.901000", "113114.905000", "113114.908000", "113154.849000", "113154.852000", "113154.856000", "113154.859000", "113154.862000", "113154.865000", "113154.868000", "113154.872000", "113154.875000", "113154.878000", "113154.881000", "113154.884000", "113154.888000", "113154.891000", "113154.894000", "113154.897000", "113154.900000", "113154.903000", "113154.907000", "113154.910000", "113234.848000", "113234.851000", "113234.855000", "113234.858000", "113234.861000", "113234.864000", "113234.867000", "113234.871000", "113234.874000", "113234.877000", "113234.880000", "113234.883000", "113234.886000", "113234.889000", "113234.893000", "113234.896000", "113234.899000", "113234.902000", "113234.905000", "113234.908000", "113314.849000", "113314.852000", "113314.855000", "113314.859000", "113314.862000", "113314.865000", "113314.868000", "113314.871000", "113314.874000", "113314.877000", "113314.881000", "113314.884000", "113314.887000", "113314.890000", "113314.894000", "113314.897000", "113314.900000", "113314.903000", "113314.906000", "113314.909000", "113354.848000", "113354.851000", "113354.855000", "113354.870000", "113354.873000", "113354.876000", "113354.879000", "113354.882000", "113354.885000", "113354.889000", "113354.892000", "113354.895000", "113354.898000", "113354.901000", "113354.904000", "113354.907000", "113354.910000", "113354.913000", "113354.916000", "113354.919000", "113434.849000", "113434.853000", "113434.856000", "113434.859000", "113434.862000", "113434.865000", "113434.868000", "113434.872000", "113434.875000", "113434.878000", "113434.881000", "113434.884000", "113434.887000", "113434.890000", "113434.894000", "113434.897000", "113434.900000", "113434.903000", "113434.906000", "113434.910000", "113439.066000", "113439.070000", "113439.073000"],
      "InstanceNumber": [1, 2, 3, 4, 5, 6, 7, 8, 9, 10, 11, 12, 13, 14, 15, 16, 17, 18, 19, 20, 21, 22, 23, 24, 25, 26, 27, 28, 29, 30, 31, 32, 33, 34, 35, 36, 37, 38, 39, 40, 41, 42, 43, 44, 45, 46, 47, 48, 49, 50, 51, 52, 53, 54, 55, 56, 57, 58, 59, 60, 61, 62, 63, 64, 65, 66, 67, 68, 69, 70, 71, 72, 73, 74, 75, 76, 77, 78, 79, 80, 81, 82, 83, 84, 85, 86, 87, 88, 89, 90, 91, 92, 93, 94, 95, 96, 97, 98, 99, 100, 101, 102, 103, 104, 105, 106, 107, 108, 109, 110, 111, 112, 113, 114, 115, 116, 117, 118, 119, 120, 121, 122, 123, 124, 125, 126, 127, 128, 129, 130, 131, 132, 133, 134, 135, 136, 137, 138, 139, 140, 141, 142, 143, 144, 145, 146, 147, 148, 149, 150, 151, 152, 153, 154, 155, 156, 157, 158, 159, 160, 161, 162, 163, 164, 165, 166, 167, 168, 169, 170, 171, 172, 173, 174, 175, 176, 177, 178, 179, 180, 181, 182, 183, 184, 185, 186, 187, 188, 189, 190, 191, 192, 193, 194, 195, 196, 197, 198, 199, 200, 201, 202, 203, 204, 205, 206, 207, 208, 209, 210, 211, 212, 213, 214, 215, 216, 217, 218, 219, 220, 221, 222, 223, 224, 225, 226, 227, 228, 229, 230, 231, 232, 233, 234, 235, 236, 237],
      "LargestImagePixelValue": [2106, 2517, 2075, 1803, 1824, 1774, 2006, 1922, 1739, 1659, 1773, 2471, 1943, 1729, 1952, 2143, 2313, 2432, 2167, 1823, 1792, 1719, 1736, 2391, 1816, 1952, 2017, 1891, 2078, 2193, 1950, 1836, 1813, 1836, 1685, 1685, 2109, 2345, 1827, 1826, 1828, 1792, 1734, 1911, 2031, 2164, 2344, 2323, 1862, 1829, 1846, 1855, 1851, 1873, 1814, 1878, 1845, 1801, 1744, 1809, 1844, 1695, 1791, 1919, 2207, 2402, 1879, 1861, 1852, 1846, 1886, 2115, 1861, 1776, 1796, 1847, 1882, 1994, 2353, 2173, 1829, 1814, 1769, 1806, 1898, 2217, 2394, 2028, 1864, 1846, 1856, 1818, 1854, 1875, 1674, 1788, 2117, 2318, 1927, 1873, 1833, 1684, 1727, 2198, 2057, 1882, 1845, 1832, 1899, 2113, 2466, 2161, 2109, 2216, 1943, 1863, 1922, 1918, 1875, 1839, 1927, 1879, 1761, 1896, 1951, 2080, 2288, 2210, 1905, 1786, 1844, 1894, 2275, 2261, 1821, 1601, 1580, 2269, 1882, 1790, 2322, 2419, 1846, 1894, 1839, 2262, 1903, 1869, 1871, 1727, 2035, 2440, 1900, 1834, 1759, 2094, 1882, 1876, 1837, 1872, 2433, 2073, 1883, 1814, 1810, 1845, 2211, 2357, 2100, 1865, 1853, 1811, 1796, 1961, 1823, 1989, 2443, 2619, 1821, 1809, 1808, 1854, 1667, 1768, 1852, 1953, 2302, 2311, 1949, 1881, 1835, 1866, 1839, 1828, 2092, 1959, 1761, 1872, 2234, 2458, 1855, 1833, 1842, 1829, 1815, 1758, 1862, 1950, 2382, 1858, 1728, 1736, 1817, 1840, 2025, 1969, 2283, 2423, 1952, 1881, 1792, 1941, 1700, 1925, 1687, 2078, 2110, 2069, 2337, 2194, 1887, 1786, 1779, 1837, 2115, 2216, 2449],
      "WindowCenter": [663.0, 662.0, 660.0, 659.0, 659.0, 659.0, 659.0, 659.0, 659.0, 659.0, 660.0, 662.0, 660.0, 658.0, 660.0, 660.0, 660.0, 661.0, 660.0, 659.0, 659.0, 660.0, 660.0, 662.0, 659.0, 658.0, 658.0, 658.0, 659.0, 660.0, 659.0, 659.0, 658.0, 658.0, 658.0, 658.0, 660.0, 661.0, 659.0, 660.0, 660.0, 659.0, 659.0, 660.0, 660.0, 660.0, 660.0, 660.0, 658.0, 658.0, 658.0, 658.0, 658.0, 659.0, 658.0, 659.0, 659.0, 659.0, 658.0, 658.0, 659.0, 658.0, 659.0, 660.0, 660.0, 661.0, 659.0, 659.0, 659.0, 659.0, 659.0, 659.0, 658.0, 658.0, 657.0, 658.0, 659.0, 659.0, 660.0, 660.0, 658.0, 659.0, 659.0, 659.0, 659.0, 660.0, 660.0, 659.0, 658.0, 658.0, 658.0, 658.0, 659.0, 659.0, 657.0, 658.0, 660.0, 661.0, 659.0, 659.0, 659.0, 658.0, 658.0, 661.0, 661.0, 660.0, 659.0, 659.0, 658.0, 659.0, 660.0, 660.0, 659.0, 660.0, 659.0, 659.0, 659.0, 659.0, 659.0, 659.0, 659.0, 659.0, 658.0, 659.0, 659.0, 659.0, 660.0, 661.0, 660.0, 660.0, 660.0, 659.0, 660.0, 660.0, 658.0, 656.0, 657.0, 661.0, 659.0, 658.0, 660.0, 660.0, 658.0, 659.0, 658.0, 659.0, 658.0, 658.0, 659.0, 658.0, 659.0, 660.0, 659.0, 659.0, 659.0, 660.0, 659.0, 659.0, 659.0, 659.0, 661.0, 660.0, 660.0, 659.0, 659.0, 660.0, 662.0, 662.0, 661.0, 660.0, 660.0, 660.0, 659.0, 660.0, 659.0, 660.0, 661.0, 662.0, 658.0, 658.0, 658.0, 658.0, 657.0, 658.0, 659.0, 659.0, 660.0, 660.0, 660.0, 660.0, 660.0, 660.0, 660.0, 659.0, 660.0, 659.0, 658.0, 659.0, 660.0, 661.0, 659.0, 659.0, 660.0, 659.0, 659.0, 658.0, 659.0, 659.0, 660.0, 658.0, 657.0, 658.0, 661.0, 661.0, 661.0, 660.0, 661.0, 661.0, 660.0, 659.0, 658.0, 659.0, 659.0, 660.0, 659.0, 660.0, 660.0, 661.0, 661.0, 661.0, 659.0, 659.0, 659.0, 660.0, 660.0, 660.0, 661.0],
      "WindowWidth": [1444.0, 1440.0, 1434.0, 1431.0, 1431.0, 1430.0, 1431.0, 1430.0, 1430.0, 1431.0, 1433.0, 1439.0, 1433.0, 1430.0, 1432.0, 1433.0, 1433.0, 1435.0, 1434.0, 1430.0, 1432.0, 1433.0, 1433.0, 1440.0, 1431.0, 1429.0, 1428.0, 1429.0, 1431.0, 1433.0, 1431.0, 1430.0, 1429.0, 1429.0, 1428.0, 1428.0, 1432.0, 1436.0, 1432.0, 1434.0, 1432.0, 1431.0, 1430.0, 1433.0, 1434.0, 1433.0, 1434.0, 1433.0, 1429.0, 1428.0, 1428.0, 1428.0, 1428.0, 1430.0, 1430.0, 1430.0, 1430.0, 1430.0, 1429.0, 1429.0, 1430.0, 1429.0, 1430.0, 1432.0, 1435.0, 1436.0, 1431.0, 1430.0, 1430.0, 1430.0, 1430.0, 1432.0, 1428.0, 1428.0, 1427.0, 1428.0, 1430.0, 1432.0, 1434.0, 1432.0, 1429.0, 1431.0, 1431.0, 1431.0, 1431.0, 1434.0, 1435.0, 1431.0, 1428.0, 1427.0, 1428.0, 1428.0, 1430.0, 1430.0, 1427.0, 1428.0, 1433.0, 1436.0, 1431.0, 1430.0, 1430.0, 1429.0, 1429.0, 1436.0, 1436.0, 1435.0, 1432.0, 1431.0, 1429.0, 1432.0, 1434.0, 1432.0, 1432.0, 1434.0, 1431.0, 1430.0, 1430.0, 1431.0, 1431.0, 1432.0, 1432.0, 1431.0, 1428.0, 1432.0, 1431.0, 1432.0, 1434.0, 1435.0, 1435.0, 1435.0, 1433.0, 1432.0, 1433.0, 1432.0, 1427.0, 1424.0, 1426.0, 1437.0, 1431.0, 1429.0, 1434.0, 1435.0, 1428.0, 1430.0, 1429.0, 1431.0, 1428.0, 1430.0, 1432.0, 1429.0, 1431.0, 1435.0, 1430.0, 1430.0, 1430.0, 1433.0, 1431.0, 1431.0, 1432.0, 1432.0, 1435.0, 1433.0, 1433.0, 1432.0, 1432.0, 1433.0, 1439.0, 1439.0, 1435.0, 1432.0, 1434.0, 1433.0, 1431.0, 1433.0, 1431.0, 1434.0, 1437.0, 1438.0, 1428.0, 1428.0, 1427.0, 1428.0, 1426.0, 1427.0, 1430.0, 1431.0, 1433.0, 1434.0, 1432.0, 1433.0, 1432.0, 1434.0, 1434.0, 1432.0, 1434.0, 1431.0, 1429.0, 1430.0, 1434.0, 1436.0, 1431.0, 1431.0, 1433.0, 1432.0, 1431.0, 1429.0, 1430.0, 1431.0, 1434.0, 1428.0, 1427.0, 1429.0, 1436.0, 1436.0, 1436.0, 1434.0, 1435.0, 1437.0, 1433.0, 1431.0, 1430.0, 1431.0, 1430.0, 1434.0, 1431.0, 1433.0, 1434.0, 1435.0, 1437.0, 1435.0, 1432.0, 1431.0, 1432.0, 1433.0, 1435.0, 1434.0, 1437.0]
    },
    "slices": {}
  }
}