{
  "AcquisitionMatrixPE": 70,
  "AcquisitionNumber": 1,
  "AcquisitionTime": "10:49:51.315000",
  "BandwidthPerPixelPhaseEncode": 38.873,
  "BaseResolution": 70,
  "BodyPartExamined": "HEAD",
  "ConsistencyInfo": "N4_VE11B_LATEST_20150530",
  "ConversionSoftware": "dcm2niix",
  "ConversionSoftwareVersion": "v1.0.20190410  GCC6.3.0",
  "DerivedVendorReportedEchoSpacing": 0.000489996,
  "DeviceSerialNumber": "66088",
  "DwellTime": 2.9e-06,
  "EchoTime": 0.03,
  "EchoTrainLength": 53,
  "EffectiveEchoSpacing": 0.000367497,
  "FlipAngle": 90,
  "ImageOrientationPatientDICOM": [0.989739, -0.0919915, 0.109338, 0.123279, 0.936638, -0.327889],
  "ImageType": [
    "ORIGINAL",
    "PRIMARY",
    "M",
    "ND",
    "NORM",
    "MOSAIC"
],
  "ImagingFrequency": 123.191,
  "InPlanePhaseEncodingDirectionDICOM": "COL",
  "InstitutionAddress": "Street_StreetNo_City_District_IR_ZIP",
  "InstitutionName": "NBML",
  "InstitutionalDepartmentName": "Department",
  "MRAcquisitionType": "2D",
  "MagneticFieldStrength": 3,
  "Manufacturer": "Siemens",
  "ManufacturersModelName": "Prisma",
  "Modality": "MR",
  "ParallelReductionFactorInPlane": 2,
  "PartialFourier": 1,
  "PatientPosition": "HFS",
  "PercentPhaseFOV": 100,
  "PhaseEncodingDirection": "j-",
  "PhaseEncodingSteps": 105,
  "PhaseOversampling": 0.5,
  "PhaseResolution": 1,
  "PixelBandwidth": 2465,
  "ProcedureStepDescription": "NBML_Project_P-96169-Ebrahiminiya",
  "ProtocolName": "ep2d_p2_Task_3.5_measurment:237",
  "PulseSequenceDetails": "%SiemensSeq%_ep2d_pace",
  "ReceiveCoilActiveElements": "HC1-7;NC1",
  "ReceiveCoilName": "HeadNeck_64",
  "ReconMatrixPE": 70,
  "RefLinesPE": 24,
  "RepetitionTime": 2,
  "SAR": 0.0899495,
  "ScanOptions": "FS",
  "ScanningSequence": "EP",
  "SequenceName": "_epfid2d1_70",
  "SequenceVariant": "SK_OSP",
  "SeriesDescription": "ep2d_p2_Task_3.5_measurment:237",
  "SeriesNumber": 4,
  "ShimSetting": [2618, -4469, -3279, 350, 13, 32, -4, -28],
  "SliceThickness": 3.5,
  "SliceTiming": [0.99, 0, 1.0475, 0.0575, 1.105, 0.1175, 1.165, 0.175, 1.2225, 0.2325, 1.28, 0.29, 1.34, 0.35, 1.3975, 0.4075, 1.455, 0.465, 1.515, 0.525, 1.5725, 0.5825, 1.63, 0.64, 1.6875, 0.6975, 1.7475, 0.7575, 1.805, 0.815, 1.8625, 0.8725, 1.9225, 0.9325],
  "SoftwareVersions": "syngo_MR_E11",
  "SpacingBetweenSlices": 3.85,
  "StationName": "AWP66088",
  "TaskName": "categorySelectivity",
  "TotalReadoutTime": 0.0253573,
  "TxRefAmp": 245.786,
  "dcmmeta_affine": [
    [-3.506502866744995, 0.4367583096027374, 0.27815136313438416, 109.27909851074219],
    [0.3259128928184509, 3.3183751106262207, -1.3013149499893188, -111.13227081298828],
    [0.3873690068721771, 1.1616653203964233, 3.612715244293213, -105.02293395996094],
    [0.0, 0.0, 0.0, 1.0]
],
  "dcmmeta_reorient_transform": [
    [0.0, -1.0, 0.0, 69.0],
    [1.0, 0.0, 0.0, 0.0],
    [0.0, 0.0, 1.0, 0.0],
    [0.0, 0.0, 0.0, 1.0]
],
  "dcmmeta_shape": [70, 70, 34, 237],
  "dcmmeta_slice_dim": 2,
  "dcmmeta_version": 0.6,
  "global": {
    "const": {
      "AcquisitionMatrix": [70, 0, 0, 70],
      "AngioFlag": "N",
      "BitsAllocated": 16,
      "BitsStored": 12,
      "BodyPartExamined": "HEAD",
      "Columns": 420,
      "EchoNumbers": 1,
      "EchoTime": 30.0,
      "EchoTrainLength": 53,
      "FlipAngle": 90.0,
      "HighBit": 11,
      "ImageOrientationPatient": [0.98973872965766, -0.0919915377268, 0.10933802633262, 0.12327855493702, 0.93663810040153, -0.3278894124074],
      "ImagePositionPatient": [-829.48614710636, -641.51647945471, 110.63383725701],
      "ImageType": [
        "ORIGINAL",
        "PRIMARY",
        "M",
        "ND",
        "NORM",
        "MOSAIC"
],
      "ImagedNucleus": "1H",
      "ImagingFrequency": 123.191152,
      "InPlanePhaseEncodingDirection": "COL",
      "MRAcquisitionType": "2D",
      "MagneticFieldStrength": 3.0,
      "Manufacturer": "SIEMENS",
      "ManufacturerModelName": "Prisma",
      "Modality": "MR",
      "NumberOfAverages": 1.0,
      "NumberOfPhaseEncodingSteps": 105,
      "PercentPhaseFieldOfView": 100.0,
      "PercentSampling": 100.0,
      "PerformedProcedureStepStartTime": "103346.712000",
      "PhotometricInterpretation": "MONOCHROME2",
      "PixelBandwidth": 2465.0,
      "PixelRepresentation": 0,
      "PixelSpacing": [3.542857170105, 3.542857170105],
      "ProtocolName": "ep2d_p2_Task_3.5_measurment:237",
      "RepetitionTime": 2000.0,
      "Rows": 420,
      "SAR": 0.089949506092,
      "SamplesPerPixel": 1,
      "ScanOptions": "FS",
      "ScanningSequence": "EP",
      "SequenceName": "*epfid2d1_70",
      "SequenceVariant": [
        "SK",
        "OSP"
],
      "SeriesDescription": "ep2d_p2_Task_3.5_measurment:237",
      "SeriesNumber": 4,
      "SeriesTime": "105007.468000",
      "SliceLocation": -53.091878053948,
      "SliceThickness": 3.5,
      "SmallestImagePixelValue": 0,
      "SoftwareVersions": "syngo MR E11",
      "SpacingBetweenSlices": 3.8499999692343,
      "SpecificCharacterSet": "ISO_IR 100",
      "StudyID": "1",
      "StudyTime": "103346.645000",
      "TransmitCoilName": "Body",
      "VariableFlipAngleFlag": "N",
      "WindowCenterWidthExplanation": "Algo1",
      "dBdt": 0.0},
    "slices": {}
  },
  "time": {
    "samples": {
      "AcquisitionNumber": [1, 2, 3, 4, 5, 6, 7, 8, 9, 10, 11, 12, 13, 14, 15, 16, 17, 18, 19, 20, 21, 22, 23, 24, 25, 26, 27, 28, 29, 30, 31, 32, 33, 34, 35, 36, 37, 38, 39, 40, 41, 42, 43, 44, 45, 46, 47, 48, 49, 50, 51, 52, 53, 54, 55, 56, 57, 58, 59, 60, 61, 62, 63, 64, 65, 66, 67, 68, 69, 70, 71, 72, 73, 74, 75, 76, 77, 78, 79, 80, 81, 82, 83, 84, 85, 86, 87, 88, 89, 90, 91, 92, 93, 94, 95, 96, 97, 98, 99, 100, 101, 102, 103, 104, 105, 106, 107, 108, 109, 110, 111, 112, 113, 114, 115, 116, 117, 118, 119, 120, 121, 122, 123, 124, 125, 126, 127, 128, 129, 130, 131, 132, 133, 134, 135, 136, 137, 138, 139, 140, 141, 142, 143, 144, 145, 146, 147, 148, 149, 150, 151, 152, 153, 154, 155, 156, 157, 158, 159, 160, 161, 162, 163, 164, 165, 166, 167, 168, 169, 170, 171, 172, 173, 174, 175, 176, 177, 178, 179, 180, 181, 182, 183, 184, 185, 186, 187, 188, 189, 190, 191, 192, 193, 194, 195, 196, 197, 198, 199, 200, 201, 202, 203, 204, 205, 206, 207, 208, 209, 210, 211, 212, 213, 214, 215, 216, 217, 218, 219, 220, 221, 222, 223, 224, 225, 226, 227, 228, 229, 230, 231, 232, 233, 234, 235, 236, 237],
      "AcquisitionTime": ["104951.315000", "104953.315000", "104955.315000", "104957.315000", "104959.315000", "105001.315000", "105003.315000", "105005.315000", "105007.315000", "105009.315000", "105011.315000", "105013.315000", "105015.315000", "105017.315000", "105019.315000", "105021.315000", "105023.315000", "105025.315000", "105027.315000", "105029.315000", "105031.315000", "105033.315000", "105035.315000", "105037.315000", "105039.315000", "105041.315000", "105043.315000", "105045.315000", "105047.315000", "105049.315000", "105051.315000", "105053.315000", "105055.315000", "105057.315000", "105059.315000", "105101.315000", "105103.315000", "105105.315000", "105107.315000", "105109.315000", "105111.315000", "105113.315000", "105115.315000", "105117.315000", "105119.315000", "105121.315000", "105123.315000", "105125.315000", "105127.315000", "105129.315000", "105131.315000", "105133.315000", "105135.315000", "105137.315000", "105139.315000", "105141.315000", "105143.315000", "105145.315000", "105147.315000", "105149.315000", "105151.315000", "105153.315000", "105155.315000", "105157.315000", "105159.315000", "105201.315000", "105203.315000", "105205.315000", "105207.315000", "105209.315000", "105211.315000", "105213.315000", "105215.315000", "105217.315000", "105219.315000", "105221.315000", "105223.315000", "105225.315000", "105227.315000", "105229.315000", "105231.315000", "105233.315000", "105235.315000", "105237.315000", "105239.315000", "105241.315000", "105243.315000", "105245.315000", "105247.315000", "105249.315000", "105251.315000", "105253.315000", "105255.315000", "105257.315000", "105259.315000", "105301.315000", "105303.315000", "105305.315000", "105307.315000", "105309.315000", "105311.315000", "105313.315000", "105315.315000", "105317.315000", "105319.315000", "105321.315000", "105323.315000", "105325.315000", "105327.315000", "105329.315000", "105331.315000", "105333.315000", "105335.315000", "105337.315000", "105339.315000", "105341.315000", "105343.315000", "105345.315000", "105347.315000", "105349.315000", "105351.315000", "105353.315000", "105355.315000", "105357.315000", "105359.315000", "105401.315000", "105403.315000", "105405.315000", "105407.315000", "105409.315000", "105411.315000", "105413.315000", "105415.315000", "105417.315000", "105419.315000", "105421.315000", "105423.315000", "105425.315000", "105427.315000", "105429.315000", "105431.315000", "105433.315000", "105435.315000", "105437.315000", "105439.315000", "105441.315000", "105443.315000", "105445.315000", "105447.315000", "105449.315000", "105451.315000", "105453.315000", "105455.315000", "105457.315000", "105459.315000", "105501.315000", "105503.315000", "105505.315000", "105507.315000", "105509.315000", "105511.315000", "105513.315000", "105515.315000", "105517.315000", "105519.315000", "105521.315000", "105523.315000", "105525.315000", "105527.315000", "105529.315000", "105531.315000", "105533.315000", "105535.315000", "105537.315000", "105539.315000", "105541.315000", "105543.315000", "105545.315000", "105547.315000", "105549.315000", "105551.315000", "105553.315000", "105555.315000", "105557.315000", "105559.315000", "105601.315000", "105603.315000", "105605.315000", "105607.315000", "105609.315000", "105611.315000", "105613.315000", "105615.315000", "105617.315000", "105619.315000", "105621.315000", "105623.315000", "105625.315000", "105627.315000", "105629.315000", "105631.315000", "105633.315000", "105635.315000", "105637.315000", "105639.315000", "105641.315000", "105643.315000", "105645.315000", "105647.315000", "105649.315000", "105651.315000", "105653.315000", "105655.315000", "105657.315000", "105659.315000", "105701.315000", "105703.315000", "105705.315000", "105707.315000", "105709.315000", "105711.315000", "105713.315000", "105715.315000", "105717.315000", "105719.315000", "105721.315000", "105723.315000", "105725.315000", "105727.315000", "105729.315000", "105731.315000", "105733.315000", "105735.315000", "105737.315000", "105739.315000", "105741.315000", "105743.315000"],
      "ContentTime": ["105007.472000", "105007.476000", "105007.479000", "105007.482000", "105007.492000", "105007.495000", "105007.498000", "105007.501000", "105047.463000", "105047.467000", "105047.479000", "105047.482000", "105047.485000", "105047.489000", "105047.492000", "105047.495000", "105047.498000", "105047.501000", "105047.504000", "105047.507000", "105047.510000", "105047.513000", "105047.516000", "105047.519000", "105047.522000", "105047.525000", "105047.529000", "105047.532000", "105127.464000", "105127.467000", "105127.470000", "105127.472000", "105127.475000", "105127.477000", "105127.480000", "105127.482000", "105127.488000", "105127.491000", "105127.493000", "105127.496000", "105127.498000", "105127.501000", "105127.503000", "105127.506000", "105127.508000", "105127.510000", "105127.513000", "105127.515000", "105207.465000", "105207.468000", "105207.471000", "105207.474000", "105207.477000", "105207.480000", "105207.484000", "105207.487000", "105207.490000", "105207.493000", "105207.496000", "105207.499000", "105207.502000", "105207.505000", "105207.508000", "105207.511000", "105207.514000", "105207.517000", "105207.520000", "105207.523000", "105247.465000", "105247.468000", "105247.472000", "105247.475000", "105247.478000", "105247.481000", "105247.484000", "105247.487000", "105247.490000", "105247.494000", "105247.497000", "105247.500000", "105247.503000", "105247.506000", "105247.509000", "105247.513000", "105247.516000", "105247.519000", "105247.522000", "105247.525000", "105327.464000", "105327.466000", "105327.469000", "105327.471000", "105327.474000", "105327.476000", "105327.479000", "105327.481000", "105327.483000", "105327.486000", "105327.489000", "105327.491000", "105327.494000", "105327.496000", "105327.499000", "105327.502000", "105327.504000", "105327.507000", "105327.509000", "105327.512000", "105407.464000", "105407.467000", "105407.470000", "105407.473000", "105407.477000", "105407.480000", "105407.483000", "105407.486000", "105407.489000", "105407.493000", "105407.496000", "105407.499000", "105407.502000", "105407.506000", "105407.509000", "105407.512000", "105407.515000", "105407.518000", "105407.521000", "105407.525000", "105447.465000", "105447.468000", "105447.471000", "105447.474000", "105447.477000", "105447.480000", "105447.483000", "105447.486000", "105447.489000", "105447.493000", "105447.496000", "105447.499000", "105447.502000", "105447.505000", "105447.509000", "105447.512000", "105447.515000", "105447.518000", "105447.522000", "105447.525000", "105527.463000", "105527.465000", "105527.468000", "105527.471000", "105527.473000", "105527.476000", "105527.479000", "105527.481000", "105527.484000", "105527.487000", "105527.490000", "105527.498000", "105527.501000", "105527.503000", "105527.506000", "105527.508000", "105527.511000", "105527.514000", "105527.517000", "105527.519000", "105607.464000", "105607.467000", "105607.470000", "105607.473000", "105607.476000", "105607.479000", "105607.482000", "105607.485000", "105607.489000", "105607.492000", "105607.495000", "105607.498000", "105607.501000", "105607.504000", "105607.507000", "105607.510000", "105607.514000", "105607.517000", "105607.520000", "105607.523000", "105647.464000", "105647.468000", "105647.471000", "105647.474000", "105647.477000", "105647.481000", "105647.484000", "105647.487000", "105647.490000", "105647.494000", "105647.497000", "105647.500000", "105647.503000", "105647.506000", "105647.510000", "105647.513000", "105647.516000", "105647.519000", "105647.522000", "105647.525000", "105727.464000", "105727.467000", "105727.471000", "105727.474000", "105727.477000", "105727.480000", "105727.484000", "105727.486000", "105727.489000", "105727.492000", "105727.494000", "105727.497000", "105727.500000", "105727.502000", "105727.505000", "105727.507000", "105727.510000", "105727.512000", "105727.515000", "105727.518000", "105744.820000", "105744.823000", "105744.825000", "105744.828000", "105744.830000", "105744.833000", "105744.835000", "105744.839000", "105744.842000"],
      "InstanceCreationTime": ["105007.472000", "105007.476000", "105007.479000", "105007.482000", "105007.492000", "105007.495000", "105007.498000", "105007.501000", "105047.463000", "105047.467000", "105047.479000", "105047.482000", "105047.485000", "105047.489000", "105047.492000", "105047.495000", "105047.498000", "105047.501000", "105047.504000", "105047.507000", "105047.510000", "105047.513000", "105047.516000", "105047.519000", "105047.522000", "105047.525000", "105047.529000", "105047.532000", "105127.464000", "105127.467000", "105127.470000", "105127.472000", "105127.475000", "105127.477000", "105127.480000", "105127.482000", "105127.488000", "105127.491000", "105127.493000", "105127.496000", "105127.498000", "105127.501000", "105127.503000", "105127.506000", "105127.508000", "105127.510000", "105127.513000", "105127.515000", "105207.465000", "105207.468000", "105207.471000", "105207.474000", "105207.477000", "105207.480000", "105207.484000", "105207.487000", "105207.490000", "105207.493000", "105207.496000", "105207.499000", "105207.502000", "105207.505000", "105207.508000", "105207.511000", "105207.514000", "105207.517000", "105207.520000", "105207.523000", "105247.465000", "105247.468000", "105247.472000", "105247.475000", "105247.478000", "105247.481000", "105247.484000", "105247.487000", "105247.490000", "105247.494000", "105247.497000", "105247.500000", "105247.503000", "105247.506000", "105247.509000", "105247.513000", "105247.516000", "105247.519000", "105247.522000", "105247.525000", "105327.464000", "105327.466000", "105327.469000", "105327.471000", "105327.474000", "105327.476000", "105327.479000", "105327.481000", "105327.483000", "105327.486000", "105327.489000", "105327.491000", "105327.494000", "105327.496000", "105327.499000", "105327.502000", "105327.504000", "105327.507000", "105327.509000", "105327.512000", "105407.464000", "105407.467000", "105407.470000", "105407.473000", "105407.477000", "105407.480000", "105407.483000", "105407.486000", "105407.489000", "105407.493000", "105407.496000", "105407.499000", "105407.502000", "105407.506000", "105407.509000", "105407.512000", "105407.515000", "105407.518000", "105407.521000", "105407.525000", "105447.465000", "105447.468000", "105447.471000", "105447.474000", "105447.477000", "105447.480000", "105447.483000", "105447.486000", "105447.489000", "105447.493000", "105447.496000", "105447.499000", "105447.502000", "105447.505000", "105447.509000", "105447.512000", "105447.515000", "105447.518000", "105447.522000", "105447.525000", "105527.463000", "105527.465000", "105527.468000", "105527.471000", "105527.473000", "105527.476000", "105527.479000", "105527.481000", "105527.484000", "105527.487000", "105527.490000", "105527.498000", "105527.501000", "105527.503000", "105527.506000", "105527.508000", "105527.511000", "105527.514000", "105527.517000", "105527.519000", "105607.464000", "105607.467000", "105607.470000", "105607.473000", "105607.476000", "105607.479000", "105607.482000", "105607.485000", "105607.489000", "105607.492000", "105607.495000", "105607.498000", "105607.501000", "105607.504000", "105607.507000", "105607.510000", "105607.514000", "105607.517000", "105607.520000", "105607.523000", "105647.464000", "105647.468000", "105647.471000", "105647.474000", "105647.477000", "105647.481000", "105647.484000", "105647.487000", "105647.490000", "105647.494000", "105647.497000", "105647.500000", "105647.503000", "105647.506000", "105647.510000", "105647.513000", "105647.516000", "105647.519000", "105647.522000", "105647.525000", "105727.464000", "105727.467000", "105727.471000", "105727.474000", "105727.477000", "105727.480000", "105727.484000", "105727.486000", "105727.489000", "105727.492000", "105727.494000", "105727.497000", "105727.500000", "105727.502000", "105727.505000", "105727.507000", "105727.510000", "105727.512000", "105727.515000", "105727.518000", "105744.820000", "105744.823000", "105744.825000", "105744.828000", "105744.830000", "105744.833000", "105744.835000", "105744.839000", "105744.842000"],
      "InstanceNumber": [1, 2, 3, 4, 5, 6, 7, 8, 9, 10, 11, 12, 13, 14, 15, 16, 17, 18, 19, 20, 21, 22, 23, 24, 25, 26, 27, 28, 29, 30, 31, 32, 33, 34, 35, 36, 37, 38, 39, 40, 41, 42, 43, 44, 45, 46, 47, 48, 49, 50, 51, 52, 53, 54, 55, 56, 57, 58, 59, 60, 61, 62, 63, 64, 65, 66, 67, 68, 69, 70, 71, 72, 73, 74, 75, 76, 77, 78, 79, 80, 81, 82, 83, 84, 85, 86, 87, 88, 89, 90, 91, 92, 93, 94, 95, 96, 97, 98, 99, 100, 101, 102, 103, 104, 105, 106, 107, 108, 109, 110, 111, 112, 113, 114, 115, 116, 117, 118, 119, 120, 121, 122, 123, 124, 125, 126, 127, 128, 129, 130, 131, 132, 133, 134, 135, 136, 137, 138, 139, 140, 141, 142, 143, 144, 145, 146, 147, 148, 149, 150, 151, 152, 153, 154, 155, 156, 157, 158, 159, 160, 161, 162, 163, 164, 165, 166, 167, 168, 169, 170, 171, 172, 173, 174, 175, 176, 177, 178, 179, 180, 181, 182, 183, 184, 185, 186, 187, 188, 189, 190, 191, 192, 193, 194, 195, 196, 197, 198, 199, 200, 201, 202, 203, 204, 205, 206, 207, 208, 209, 210, 211, 212, 213, 214, 215, 216, 217, 218, 219, 220, 221, 222, 223, 224, 225, 226, 227, 228, 229, 230, 231, 232, 233, 234, 235, 236, 237],
      "LargestImagePixelValue": [1906, 2537, 1960, 1939, 1825, 2094, 2351, 1726, 1620, 1675, 1780, 2162, 1698, 1692, 1594, 2437, 1691, 1561, 2022, 1955, 1653, 1594, 1934, 2041, 2024, 2732, 1901, 1570, 2052, 1743, 1695, 1648, 1563, 1856, 1913, 1846, 2197, 1932, 1898, 1698, 1688, 1762, 2205, 1712, 1694, 1567, 2217, 1736, 1659, 1586, 2238, 1723, 1638, 1633, 2027, 1964, 1716, 1728, 1658, 1575, 1900, 2103, 2021, 1989, 1853, 1754, 1643, 1722, 2121, 1876, 2097, 1883, 1709, 1588, 1945, 2356, 1754, 1661, 1666, 1661, 1597, 1874, 2184, 2296, 1751, 1700, 1724, 1756, 1749, 1820, 1632, 2273, 2058, 1662, 1619, 1567, 1875, 1980, 2057, 2039, 1767, 1704, 1740, 1771, 1684, 1640, 1694, 2047, 2045, 1750, 1752, 1633, 1567, 1832, 2239, 2143, 1681, 1718, 1751, 1651, 1572, 1638, 1830, 1833, 1762, 2210, 2137, 1662, 1697, 1691, 1599, 1893, 2000, 1764, 1714, 1604, 1573, 1759, 2024, 2347, 2151, 2016, 1789, 1556, 1623, 2023, 2273, 1947, 1869, 1887, 1752, 1710, 1688, 1736, 1785, 1742, 2086, 1766, 1730, 2018, 2007, 1712, 1624, 1562, 1566, 1700, 1870, 1745, 2084, 2354, 1947, 1941, 1931, 1983, 1778, 1855, 1849, 1915, 1878, 2168, 2076, 1935, 1668, 1567, 1587, 1677, 1693, 2220, 2225, 1853, 1807, 1756, 1705, 1731, 1626, 1596, 2233, 2072, 1785, 1827, 2015, 2411, 2073, 1996, 1655, 1592, 1948, 2266, 1885, 1786, 1770, 1813, 1770, 1715, 1759, 1629, 1624, 1628, 1645, 2048, 2148, 2128, 2258, 1801, 1835, 2102, 1858, 1724, 1750, 1899, 2036, 2221, 2366, 1831, 1790, 1726, 1733],
      "WindowCenter": [658.0, 659.0, 656.0, 656.0, 655.0, 656.0, 657.0, 655.0, 654.0, 654.0, 654.0, 656.0, 654.0, 655.0, 654.0, 657.0, 654.0, 654.0, 656.0, 656.0, 655.0, 654.0, 656.0, 657.0, 656.0, 658.0, 655.0, 653.0, 655.0, 654.0, 654.0, 654.0, 654.0, 655.0, 656.0, 656.0, 658.0, 657.0, 656.0, 655.0, 655.0, 655.0, 657.0, 655.0, 655.0, 654.0, 656.0, 654.0, 654.0, 653.0, 656.0, 654.0, 654.0, 654.0, 655.0, 655.0, 655.0, 655.0, 655.0, 654.0, 655.0, 656.0, 657.0, 657.0, 655.0, 655.0, 654.0, 655.0, 657.0, 655.0, 657.0, 656.0, 654.0, 653.0, 654.0, 656.0, 654.0, 654.0, 654.0, 654.0, 653.0, 654.0, 656.0, 656.0, 654.0, 654.0, 655.0, 656.0, 656.0, 656.0, 655.0, 657.0, 655.0, 653.0, 653.0, 653.0, 655.0, 655.0, 656.0, 656.0, 655.0, 655.0, 655.0, 656.0, 655.0, 655.0, 654.0, 656.0, 656.0, 655.0, 655.0, 655.0, 654.0, 655.0, 657.0, 656.0, 654.0, 655.0, 655.0, 654.0, 654.0, 654.0, 655.0, 655.0, 655.0, 658.0, 657.0, 655.0, 655.0, 655.0, 654.0, 655.0, 655.0, 655.0, 655.0, 654.0, 654.0, 655.0, 657.0, 658.0, 657.0, 656.0, 655.0, 654.0, 654.0, 656.0, 657.0, 656.0, 656.0, 656.0, 655.0, 654.0, 654.0, 655.0, 656.0, 656.0, 657.0, 656.0, 655.0, 656.0, 655.0, 654.0, 653.0, 653.0, 653.0, 655.0, 656.0, 656.0, 657.0, 658.0, 656.0, 657.0, 657.0, 657.0, 656.0, 656.0, 656.0, 657.0, 657.0, 657.0, 656.0, 655.0, 653.0, 653.0, 654.0, 655.0, 655.0, 656.0, 656.0, 655.0, 655.0, 654.0, 654.0, 654.0, 654.0, 654.0, 656.0, 656.0, 655.0, 656.0, 657.0, 658.0, 656.0, 656.0, 654.0, 654.0, 656.0, 658.0, 656.0, 655.0, 655.0, 655.0, 655.0, 655.0, 655.0, 654.0, 654.0, 655.0, 655.0, 656.0, 656.0, 657.0, 658.0, 657.0, 656.0, 656.0, 655.0, 654.0, 654.0, 655.0, 656.0, 656.0, 656.0, 654.0, 654.0, 654.0, 655.0],
      "WindowWidth": [1428.0, 1430.0, 1423.0, 1422.0, 1419.0, 1421.0, 1425.0, 1420.0, 1418.0, 1418.0, 1418.0, 1423.0, 1418.0, 1420.0, 1417.0, 1424.0, 1418.0, 1417.0, 1422.0, 1423.0, 1419.0, 1418.0, 1423.0, 1425.0, 1423.0, 1427.0, 1419.0, 1415.0, 1420.0, 1418.0, 1417.0, 1417.0, 1416.0, 1421.0, 1423.0, 1423.0, 1428.0, 1424.0, 1422.0, 1419.0, 1420.0, 1420.0, 1425.0, 1419.0, 1419.0, 1416.0, 1423.0, 1418.0, 1417.0, 1415.0, 1422.0, 1418.0, 1417.0, 1417.0, 1420.0, 1420.0, 1420.0, 1421.0, 1420.0, 1417.0, 1420.0, 1423.0, 1425.0, 1425.0, 1421.0, 1420.0, 1418.0, 1419.0, 1424.0, 1421.0, 1425.0, 1423.0, 1418.0, 1415.0, 1418.0, 1423.0, 1418.0, 1418.0, 1418.0, 1419.0, 1416.0, 1418.0, 1421.0, 1423.0, 1418.0, 1418.0, 1420.0, 1423.0, 1423.0, 1423.0, 1419.0, 1425.0, 1421.0, 1415.0, 1415.0, 1415.0, 1419.0, 1421.0, 1422.0, 1424.0, 1421.0, 1420.0, 1420.0, 1422.0, 1420.0, 1419.0, 1418.0, 1422.0, 1422.0, 1419.0, 1420.0, 1419.0, 1418.0, 1421.0, 1424.0, 1423.0, 1418.0, 1419.0, 1420.0, 1418.0, 1417.0, 1417.0, 1420.0, 1420.0, 1421.0, 1427.0, 1427.0, 1420.0, 1420.0, 1420.0, 1418.0, 1420.0, 1421.0, 1420.0, 1420.0, 1418.0, 1418.0, 1421.0, 1425.0, 1429.0, 1426.0, 1423.0, 1419.0, 1417.0, 1418.0, 1422.0, 1425.0, 1422.0, 1422.0, 1423.0, 1420.0, 1418.0, 1418.0, 1420.0, 1424.0, 1423.0, 1426.0, 1422.0, 1421.0, 1422.0, 1420.0, 1416.0, 1415.0, 1415.0, 1415.0, 1419.0, 1422.0, 1422.0, 1426.0, 1427.0, 1423.0, 1424.0, 1425.0, 1426.0, 1422.0, 1421.0, 1423.0, 1425.0, 1424.0, 1425.0, 1422.0, 1419.0, 1416.0, 1415.0, 1417.0, 1420.0, 1419.0, 1423.0, 1423.0, 1420.0, 1419.0, 1418.0, 1417.0, 1418.0, 1417.0, 1417.0, 1423.0, 1422.0, 1421.0, 1424.0, 1426.0, 1429.0, 1424.0, 1421.0, 1417.0, 1417.0, 1423.0, 1427.0, 1423.0, 1420.0, 1420.0, 1421.0, 1420.0, 1419.0, 1420.0, 1418.0, 1418.0, 1419.0, 1419.0, 1422.0, 1423.0, 1424.0, 1428.0, 1425.0, 1424.0, 1423.0, 1419.0, 1416.0, 1417.0, 1420.0, 1422.0, 1423.0, 1424.0, 1417.0, 1417.0, 1417.0, 1419.0]
    },
    "slices": {}
  }
}