{
  "AcquisitionMatrixPE": 70,
  "AcquisitionNumber": 1,
  "AcquisitionTime": "11:48:6.947500",
  "BandwidthPerPixelPhaseEncode": 38.873,
  "BaseResolution": 70,
  "BodyPartExamined": "HEAD",
  "ConsistencyInfo": "N4_VE11B_LATEST_20150530",
  "ConversionSoftware": "dcm2niix",
  "ConversionSoftwareVersion": "v1.0.20190410  GCC6.3.0",
  "DerivedVendorReportedEchoSpacing": 0.000489996,
  "DeviceSerialNumber": "66088",
  "DwellTime": 2.9e-06,
  "EchoTime": 0.03,
  "EchoTrainLength": 53,
  "EffectiveEchoSpacing": 0.000367497,
  "FlipAngle": 90,
  "ImageOrientationPatientDICOM": [0.989739, -0.0919915, 0.109338, 0.123279, 0.936638, -0.327889],
  "ImageType": [
    "ORIGINAL",
    "PRIMARY",
    "M",
    "ND",
    "NORM",
    "MOSAIC"
],
  "ImagingFrequency": 123.191,
  "InPlanePhaseEncodingDirectionDICOM": "COL",
  "InstitutionAddress": "Street_StreetNo_City_District_IR_ZIP",
  "InstitutionName": "NBML",
  "InstitutionalDepartmentName": "Department",
  "MRAcquisitionType": "2D",
  "MagneticFieldStrength": 3,
  "Manufacturer": "Siemens",
  "ManufacturersModelName": "Prisma",
  "Modality": "MR",
  "ParallelReductionFactorInPlane": 2,
  "PartialFourier": 1,
  "PatientPosition": "HFS",
  "PercentPhaseFOV": 100,
  "PhaseEncodingDirection": "j-",
  "PhaseEncodingSteps": 105,
  "PhaseOversampling": 0.5,
  "PhaseResolution": 1,
  "PixelBandwidth": 2465,
  "ProcedureStepDescription": "NBML_Project_P-96169-Ebrahiminiya",
  "ProtocolName": "ep2d_p2_Task_3.5_measurment:237",
  "PulseSequenceDetails": "%SiemensSeq%_ep2d_pace",
  "ReceiveCoilActiveElements": "HC1-7;NC1",
  "ReceiveCoilName": "HeadNeck_64",
  "ReconMatrixPE": 70,
  "RefLinesPE": 24,
  "RepetitionTime": 2,
  "SAR": 0.0899495,
  "ScanOptions": "FS",
  "ScanningSequence": "EP",
  "SequenceName": "_epfid2d1_70",
  "SequenceVariant": "SK_OSP",
  "SeriesDescription": "ep2d_p2_Task_3.5_measurment:237",
  "SeriesNumber": 10,
  "ShimSetting": [2618, -4469, -3279, 350, 13, 32, -4, -28],
  "SliceThickness": 3.5,
  "SliceTiming": [0.99, 0, 1.05, 0.06, 1.1075, 0.1175, 1.165, 0.175, 1.2225, 0.2325, 1.2825, 0.2925, 1.34, 0.35, 1.3975, 0.4075, 1.4575, 0.4675, 1.515, 0.525, 1.5725, 0.5825, 1.63, 0.64, 1.69, 0.7, 1.7475, 0.7575, 1.805, 0.815, 1.865, 0.875, 1.9225, 0.9325],
  "SoftwareVersions": "syngo_MR_E11",
  "SpacingBetweenSlices": 3.85,
  "StationName": "AWP66088",
  "TaskName": "categorySelectivity",
  "TotalReadoutTime": 0.0253573,
  "TxRefAmp": 245.786,
  "dcmmeta_affine": [
    [-3.506502866744995, 0.4367583096027374, 0.27815136313438416, 109.27909851074219],
    [0.3259128928184509, 3.3183751106262207, -1.3013149499893188, -111.13227081298828],
    [0.3873690068721771, 1.1616653203964233, 3.612715244293213, -105.02293395996094],
    [0.0, 0.0, 0.0, 1.0]
],
  "dcmmeta_reorient_transform": [
    [0.0, -1.0, 0.0, 69.0],
    [1.0, 0.0, 0.0, 0.0],
    [0.0, 0.0, 1.0, 0.0],
    [0.0, 0.0, 0.0, 1.0]
],
  "dcmmeta_shape": [70, 70, 34, 237],
  "dcmmeta_slice_dim": 2,
  "dcmmeta_version": 0.6,
  "global": {
    "const": {
      "AcquisitionMatrix": [70, 0, 0, 70],
      "AngioFlag": "N",
      "BitsAllocated": 16,
      "BitsStored": 12,
      "BodyPartExamined": "HEAD",
      "Columns": 420,
      "EchoNumbers": 1,
      "EchoTime": 30.0,
      "EchoTrainLength": 53,
      "FlipAngle": 90.0,
      "HighBit": 11,
      "ImageOrientationPatient": [0.98973872965766, -0.0919915377268, 0.10933802633262, 0.12327855493702, 0.93663810040153, -0.3278894124074],
      "ImagePositionPatient": [-829.48614710636, -641.51647945471, 110.63383725701],
      "ImageType": [
        "ORIGINAL",
        "PRIMARY",
        "M",
        "ND",
        "NORM",
        "MOSAIC"
],
      "ImagedNucleus": "1H",
      "ImagingFrequency": 123.19115,
      "InPlanePhaseEncodingDirection": "COL",
      "MRAcquisitionType": "2D",
      "MagneticFieldStrength": 3.0,
      "Manufacturer": "SIEMENS",
      "ManufacturerModelName": "Prisma",
      "Modality": "MR",
      "NumberOfAverages": 1.0,
      "NumberOfPhaseEncodingSteps": 105,
      "PercentPhaseFieldOfView": 100.0,
      "PercentSampling": 100.0,
      "PerformedProcedureStepStartTime": "103346.712000",
      "PhotometricInterpretation": "MONOCHROME2",
      "PixelBandwidth": 2465.0,
      "PixelRepresentation": 0,
      "PixelSpacing": [3.542857170105, 3.542857170105],
      "ProtocolName": "ep2d_p2_Task_3.5_measurment:237",
      "RepetitionTime": 2000.0,
      "Rows": 420,
      "SAR": 0.089949506092,
      "SamplesPerPixel": 1,
      "ScanOptions": "FS",
      "ScanningSequence": "EP",
      "SequenceName": "*epfid2d1_70",
      "SequenceVariant": [
        "SK",
        "OSP"
],
      "SeriesDescription": "ep2d_p2_Task_3.5_measurment:237",
      "SeriesNumber": 10,
      "SeriesTime": "114847.469000",
      "SliceLocation": -53.091878053948,
      "SliceThickness": 3.5,
      "SmallestImagePixelValue": 0,
      "SoftwareVersions": "syngo MR E11",
      "SpacingBetweenSlices": 3.8499999692343,
      "SpecificCharacterSet": "ISO_IR 100",
      "StudyID": "1",
      "StudyTime": "103346.645000",
      "TransmitCoilName": "Body",
      "VariableFlipAngleFlag": "N",
      "WindowCenterWidthExplanation": "Algo1",
      "dBdt": 0.0},
    "slices": {}
  },
  "time": {
    "samples": {
      "AcquisitionNumber": [1, 2, 3, 4, 5, 6, 7, 8, 9, 10, 11, 12, 13, 14, 15, 16, 17, 18, 19, 20, 21, 22, 23, 24, 25, 26, 27, 28, 29, 30, 31, 32, 33, 34, 35, 36, 37, 38, 39, 40, 41, 42, 43, 44, 45, 46, 47, 48, 49, 50, 51, 52, 53, 54, 55, 56, 57, 58, 59, 60, 61, 62, 63, 64, 65, 66, 67, 68, 69, 70, 71, 72, 73, 74, 75, 76, 77, 78, 79, 80, 81, 82, 83, 84, 85, 86, 87, 88, 89, 90, 91, 92, 93, 94, 95, 96, 97, 98, 99, 100, 101, 102, 103, 104, 105, 106, 107, 108, 109, 110, 111, 112, 113, 114, 115, 116, 117, 118, 119, 120, 121, 122, 123, 124, 125, 126, 127, 128, 129, 130, 131, 132, 133, 134, 135, 136, 137, 138, 139, 140, 141, 142, 143, 144, 145, 146, 147, 148, 149, 150, 151, 152, 153, 154, 155, 156, 157, 158, 159, 160, 161, 162, 163, 164, 165, 166, 167, 168, 169, 170, 171, 172, 173, 174, 175, 176, 177, 178, 179, 180, 181, 182, 183, 184, 185, 186, 187, 188, 189, 190, 191, 192, 193, 194, 195, 196, 197, 198, 199, 200, 201, 202, 203, 204, 205, 206, 207, 208, 209, 210, 211, 212, 213, 214, 215, 216, 217, 218, 219, 220, 221, 222, 223, 224, 225, 226, 227, 228, 229, 230, 231, 232, 233, 234, 235, 236, 237],
      "AcquisitionTime": ["114806.947500", "114808.947500", "114810.947500", "114812.947500", "114814.947500", "114816.947500", "114818.947500", "114820.947500", "114822.947500", "114824.947500", "114826.947500", "114828.947500", "114830.947500", "114832.947500", "114834.947500", "114836.947500", "114838.947500", "114840.947500", "114842.947500", "114844.947500", "114846.947500", "114848.947500", "114850.947500", "114852.947500", "114854.947500", "114856.947500", "114858.947500", "114900.947500", "114902.947500", "114904.947500", "114906.947500", "114908.947500", "114910.947500", "114912.947500", "114914.947500", "114916.947500", "114918.947500", "114920.947500", "114922.947500", "114924.947500", "114926.947500", "114928.947500", "114930.947500", "114932.947500", "114934.947500", "114936.947500", "114938.947500", "114940.947500", "114942.947500", "114944.947500", "114946.947500", "114948.947500", "114950.947500", "114952.947500", "114954.947500", "114956.947500", "114958.947500", "115000.947500", "115002.947500", "115004.947500", "115006.947500", "115008.947500", "115010.947500", "115012.947500", "115014.947500", "115016.947500", "115018.947500", "115020.947500", "115022.947500", "115024.947500", "115026.947500", "115028.947500", "115030.947500", "115032.947500", "115034.947500", "115036.947500", "115038.947500", "115040.947500", "115042.947500", "115044.947500", "115046.947500", "115048.947500", "115050.947500", "115052.947500", "115054.947500", "115056.947500", "115058.947500", "115100.947500", "115102.947500", "115104.947500", "115106.947500", "115108.947500", "115110.947500", "115112.947500", "115114.947500", "115116.947500", "115118.947500", "115120.947500", "115122.947500", "115124.947500", "115126.947500", "115128.947500", "115130.947500", "115132.947500", "115134.947500", "115136.947500", "115138.947500", "115140.947500", "115142.947500", "115144.947500", "115146.947500", "115148.947500", "115150.947500", "115152.947500", "115154.947500", "115156.947500", "115158.947500", "115200.947500", "115202.947500", "115204.947500", "115206.947500", "115208.947500", "115210.947500", "115212.947500", "115214.947500", "115216.947500", "115218.947500", "115220.947500", "115222.947500", "115224.947500", "115226.947500", "115228.947500", "115230.947500", "115232.947500", "115234.947500", "115236.947500", "115238.947500", "115240.947500", "115242.947500", "115244.947500", "115246.947500", "115248.947500", "115250.947500", "115252.947500", "115254.947500", "115256.947500", "115258.947500", "115300.947500", "115302.947500", "115304.947500", "115306.947500", "115308.947500", "115310.947500", "115312.947500", "115314.947500", "115316.947500", "115318.947500", "115320.947500", "115322.947500", "115324.947500", "115326.947500", "115328.947500", "115330.947500", "115332.947500", "115334.947500", "115336.947500", "115338.947500", "115340.947500", "115342.947500", "115344.947500", "115346.947500", "115348.947500", "115350.947500", "115352.947500", "115354.947500", "115356.947500", "115358.947500", "115400.947500", "115402.947500", "115404.947500", "115406.947500", "115408.947500", "115410.947500", "115412.947500", "115414.947500", "115416.947500", "115418.947500", "115420.947500", "115422.947500", "115424.947500", "115426.947500", "115428.947500", "115430.947500", "115432.947500", "115434.947500", "115436.947500", "115438.947500", "115440.947500", "115442.947500", "115444.947500", "115446.947500", "115448.947500", "115450.947500", "115452.947500", "115454.947500", "115456.947500", "115458.947500", "115500.947500", "115502.947500", "115504.947500", "115506.947500", "115508.947500", "115510.947500", "115512.947500", "115514.947500", "115516.947500", "115518.947500", "115520.947500", "115522.947500", "115524.947500", "115526.947500", "115528.947500", "115530.947500", "115532.947500", "115534.947500", "115536.947500", "115538.947500", "115540.947500", "115542.947500", "115544.947500", "115546.947500", "115548.947500", "115550.947500", "115552.947500", "115554.947500", "115556.947500", "115558.947500"],
      "ContentTime": ["114847.476000", "114847.490000", "114847.493000", "114847.496000", "114847.500000", "114847.503000", "114847.506000", "114847.509000", "114847.513000", "114847.516000", "114847.519000", "114847.522000", "114847.525000", "114847.528000", "114847.531000", "114847.534000", "114847.538000", "114847.541000", "114847.544000", "114847.561000", "114927.466000", "114927.469000", "114927.472000", "114927.475000", "114927.479000", "114927.482000", "114927.485000", "114927.488000", "114927.491000", "114927.495000", "114927.498000", "114927.501000", "114927.504000", "114927.507000", "114927.510000", "114927.514000", "114927.517000", "114927.520000", "114927.523000", "114927.526000", "115007.465000", "115007.468000", "115007.471000", "115007.484000", "115007.487000", "115007.490000", "115007.493000", "115007.496000", "115007.499000", "115007.503000", "115007.506000", "115007.509000", "115007.512000", "115007.515000", "115007.518000", "115007.522000", "115007.525000", "115007.528000", "115007.531000", "115007.535000", "115047.469000", "115047.473000", "115047.476000", "115047.479000", "115047.482000", "115047.485000", "115047.488000", "115047.491000", "115047.494000", "115047.497000", "115047.500000", "115047.503000", "115047.506000", "115047.510000", "115047.513000", "115047.516000", "115047.519000", "115047.522000", "115047.525000", "115047.528000", "115127.464000", "115127.467000", "115127.470000", "115127.473000", "115127.476000", "115127.479000", "115127.482000", "115127.485000", "115127.489000", "115127.492000", "115127.496000", "115127.499000", "115127.503000", "115127.506000", "115127.509000", "115127.512000", "115127.515000", "115127.518000", "115127.521000", "115127.524000", "115207.464000", "115207.467000", "115207.470000", "115207.473000", "115207.477000", "115207.480000", "115207.483000", "115207.486000", "115207.489000", "115207.492000", "115207.495000", "115207.499000", "115207.502000", "115207.505000", "115207.508000", "115207.511000", "115207.514000", "115207.518000", "115207.521000", "115207.524000", "115247.467000", "115247.471000", "115247.480000", "115247.483000", "115247.486000", "115247.489000", "115247.492000", "115247.495000", "115247.498000", "115247.501000", "115247.505000", "115247.508000", "115247.511000", "115247.514000", "115247.517000", "115247.520000", "115247.524000", "115247.527000", "115247.530000", "115247.535000", "115327.464000", "115327.467000", "115327.470000", "115327.474000", "115327.477000", "115327.480000", "115327.483000", "115327.487000", "115327.490000", "115327.493000", "115327.496000", "115327.499000", "115327.502000", "115327.505000", "115327.508000", "115327.512000", "115327.515000", "115327.518000", "115327.521000", "115327.524000", "115407.464000", "115407.467000", "115407.470000", "115407.474000", "115407.477000", "115407.480000", "115407.483000", "115407.486000", "115407.489000", "115407.492000", "115407.495000", "115407.499000", "115407.502000", "115407.505000", "115407.508000", "115407.512000", "115407.515000", "115407.518000", "115407.521000", "115407.524000", "115447.465000", "115447.469000", "115447.473000", "115447.476000", "115447.479000", "115447.482000", "115447.485000", "115447.488000", "115447.491000", "115447.494000", "115447.497000", "115447.501000", "115447.504000", "115447.507000", "115447.510000", "115447.513000", "115447.516000", "115447.519000", "115447.522000", "115447.526000", "115527.465000", "115527.468000", "115527.471000", "115527.474000", "115527.478000", "115527.481000", "115527.484000", "115527.487000", "115527.490000", "115527.493000", "115527.496000", "115527.499000", "115527.502000", "115527.505000", "115527.509000", "115527.512000", "115527.515000", "115527.519000", "115527.522000", "115527.525000", "115600.472000", "115600.489000", "115600.497000", "115600.503000", "115600.508000", "115600.515000", "115600.519000", "115600.523000", "115600.527000", "115600.530000", "115600.533000", "115600.537000", "115600.540000", "115600.543000", "115600.547000", "115600.551000", "115600.554000"],
      "InstanceCreationTime": ["114847.476000", "114847.490000", "114847.493000", "114847.496000", "114847.500000", "114847.503000", "114847.506000", "114847.509000", "114847.513000", "114847.516000", "114847.519000", "114847.522000", "114847.525000", "114847.528000", "114847.531000", "114847.534000", "114847.538000", "114847.541000", "114847.544000", "114847.561000", "114927.466000", "114927.469000", "114927.472000", "114927.475000", "114927.479000", "114927.482000", "114927.485000", "114927.488000", "114927.491000", "114927.495000", "114927.498000", "114927.501000", "114927.504000", "114927.507000", "114927.510000", "114927.514000", "114927.517000", "114927.520000", "114927.523000", "114927.526000", "115007.465000", "115007.468000", "115007.471000", "115007.484000", "115007.487000", "115007.490000", "115007.493000", "115007.496000", "115007.499000", "115007.503000", "115007.506000", "115007.509000", "115007.512000", "115007.515000", "115007.518000", "115007.522000", "115007.525000", "115007.528000", "115007.531000", "115007.535000", "115047.469000", "115047.473000", "115047.476000", "115047.479000", "115047.482000", "115047.485000", "115047.488000", "115047.491000", "115047.494000", "115047.497000", "115047.500000", "115047.503000", "115047.506000", "115047.510000", "115047.513000", "115047.516000", "115047.519000", "115047.522000", "115047.525000", "115047.528000", "115127.464000", "115127.467000", "115127.470000", "115127.473000", "115127.476000", "115127.479000", "115127.482000", "115127.485000", "115127.489000", "115127.492000", "115127.496000", "115127.499000", "115127.503000", "115127.506000", "115127.509000", "115127.512000", "115127.515000", "115127.518000", "115127.521000", "115127.524000", "115207.464000", "115207.467000", "115207.470000", "115207.473000", "115207.477000", "115207.480000", "115207.483000", "115207.486000", "115207.489000", "115207.492000", "115207.495000", "115207.499000", "115207.502000", "115207.505000", "115207.508000", "115207.511000", "115207.514000", "115207.518000", "115207.521000", "115207.524000", "115247.467000", "115247.471000", "115247.480000", "115247.483000", "115247.486000", "115247.489000", "115247.492000", "115247.495000", "115247.498000", "115247.501000", "115247.505000", "115247.508000", "115247.511000", "115247.514000", "115247.517000", "115247.520000", "115247.524000", "115247.527000", "115247.530000", "115247.535000", "115327.464000", "115327.467000", "115327.470000", "115327.474000", "115327.477000", "115327.480000", "115327.483000", "115327.487000", "115327.490000", "115327.493000", "115327.496000", "115327.499000", "115327.502000", "115327.505000", "115327.508000", "115327.512000", "115327.515000", "115327.518000", "115327.521000", "115327.524000", "115407.464000", "115407.467000", "115407.470000", "115407.474000", "115407.477000", "115407.480000", "115407.483000", "115407.486000", "115407.489000", "115407.492000", "115407.495000", "115407.499000", "115407.502000", "115407.505000", "115407.508000", "115407.512000", "115407.515000", "115407.518000", "115407.521000", "115407.524000", "115447.465000", "115447.469000", "115447.473000", "115447.476000", "115447.479000", "115447.482000", "115447.485000", "115447.488000", "115447.491000", "115447.494000", "115447.497000", "115447.501000", "115447.504000", "115447.507000", "115447.510000", "115447.513000", "115447.516000", "115447.519000", "115447.522000", "115447.526000", "115527.465000", "115527.468000", "115527.471000", "115527.474000", "115527.478000", "115527.481000", "115527.484000", "115527.487000", "115527.490000", "115527.493000", "115527.496000", "115527.499000", "115527.502000", "115527.505000", "115527.509000", "115527.512000", "115527.515000", "115527.519000", "115527.522000", "115527.525000", "115600.472000", "115600.489000", "115600.497000", "115600.503000", "115600.508000", "115600.515000", "115600.519000", "115600.523000", "115600.527000", "115600.530000", "115600.533000", "115600.537000", "115600.540000", "115600.543000", "115600.547000", "115600.551000", "115600.554000"],
      "InstanceNumber": [1, 2, 3, 4, 5, 6, 7, 8, 9, 10, 11, 12, 13, 14, 15, 16, 17, 18, 19, 20, 21, 22, 23, 24, 25, 26, 27, 28, 29, 30, 31, 32, 33, 34, 35, 36, 37, 38, 39, 40, 41, 42, 43, 44, 45, 46, 47, 48, 49, 50, 51, 52, 53, 54, 55, 56, 57, 58, 59, 60, 61, 62, 63, 64, 65, 66, 67, 68, 69, 70, 71, 72, 73, 74, 75, 76, 77, 78, 79, 80, 81, 82, 83, 84, 85, 86, 87, 88, 89, 90, 91, 92, 93, 94, 95, 96, 97, 98, 99, 100, 101, 102, 103, 104, 105, 106, 107, 108, 109, 110, 111, 112, 113, 114, 115, 116, 117, 118, 119, 120, 121, 122, 123, 124, 125, 126, 127, 128, 129, 130, 131, 132, 133, 134, 135, 136, 137, 138, 139, 140, 141, 142, 143, 144, 145, 146, 147, 148, 149, 150, 151, 152, 153, 154, 155, 156, 157, 158, 159, 160, 161, 162, 163, 164, 165, 166, 167, 168, 169, 170, 171, 172, 173, 174, 175, 176, 177, 178, 179, 180, 181, 182, 183, 184, 185, 186, 187, 188, 189, 190, 191, 192, 193, 194, 195, 196, 197, 198, 199, 200, 201, 202, 203, 204, 205, 206, 207, 208, 209, 210, 211, 212, 213, 214, 215, 216, 217, 218, 219, 220, 221, 222, 223, 224, 225, 226, 227, 228, 229, 230, 231, 232, 233, 234, 235, 236, 237],
      "LargestImagePixelValue": [1786, 1970, 2658, 1859, 1630, 1951, 1922, 1714, 1687, 2123, 2087, 2010, 1722, 1682, 1631, 2440, 1825, 1739, 1739, 1683, 1893, 1797, 1798, 1923, 2015, 1724, 1744, 1684, 1627, 2111, 2575, 1761, 1772, 1760, 1701, 2055, 2307, 2056, 1764, 1753, 1652, 1670, 2065, 2146, 2512, 1820, 1689, 1723, 1703, 1602, 2412, 2035, 1754, 1621, 1755, 1594, 1815, 2441, 1890, 1772, 1746, 1809, 1880, 2054, 2044, 1859, 1801, 1734, 1738, 2002, 1629, 1948, 2356, 1913, 1732, 1734, 1710, 1611, 2132, 1659, 1784, 1820, 1935, 1987, 2376, 1791, 1784, 1771, 1732, 1628, 1690, 2067, 2105, 1754, 1721, 1636, 2074, 1942, 1748, 1775, 1732, 2029, 2393, 1841, 1768, 1738, 1954, 2334, 1852, 1759, 1768, 1750, 1854, 2217, 1955, 1958, 1811, 1807, 1795, 1681, 1611, 1811, 1740, 2028, 2561, 2452, 1759, 1732, 1755, 1946, 2252, 2082, 1737, 1735, 1640, 1766, 2304, 2166, 1789, 1790, 1725, 1616, 1711, 2288, 1906, 1780, 1798, 1761, 1746, 1887, 1916, 1824, 1948, 2052, 1834, 1740, 2350, 2407, 1832, 1815, 1798, 1788, 1693, 2082, 2342, 1763, 1831, 1811, 1652, 2251, 1954, 1703, 1689, 1919, 2441, 1851, 1802, 1788, 1623, 2063, 2389, 1888, 1817, 1726, 2500, 2033, 2154, 2425, 1866, 1810, 1783, 1721, 1855, 2023, 1763, 1673, 1665, 1901, 2529, 2104, 1786, 1706, 1624, 1701, 2419, 1820, 1844, 2283, 2180, 1796, 1782, 2040, 2302, 1862, 1834, 1770, 1679, 2107, 2619, 1773, 1643, 1682, 2133, 1908, 1817, 1833, 2102, 2314, 1848, 1772, 1688, 1724, 2114, 2268, 2479, 1892, 1795],
      "WindowCenter": [662.0, 661.0, 662.0, 659.0, 659.0, 660.0, 660.0, 659.0, 659.0, 660.0, 660.0, 660.0, 658.0, 659.0, 659.0, 661.0, 659.0, 659.0, 659.0, 659.0, 659.0, 658.0, 659.0, 660.0, 661.0, 659.0, 659.0, 660.0, 659.0, 661.0, 662.0, 659.0, 660.0, 660.0, 660.0, 661.0, 661.0, 660.0, 658.0, 658.0, 658.0, 658.0, 661.0, 661.0, 661.0, 658.0, 658.0, 659.0, 659.0, 659.0, 661.0, 660.0, 658.0, 658.0, 659.0, 658.0, 660.0, 662.0, 660.0, 659.0, 659.0, 659.0, 659.0, 659.0, 660.0, 660.0, 660.0, 660.0, 660.0, 660.0, 658.0, 660.0, 661.0, 660.0, 659.0, 659.0, 659.0, 659.0, 660.0, 659.0, 661.0, 661.0, 661.0, 660.0, 661.0, 658.0, 659.0, 658.0, 658.0, 657.0, 658.0, 660.0, 661.0, 659.0, 659.0, 658.0, 661.0, 661.0, 660.0, 660.0, 660.0, 660.0, 662.0, 660.0, 659.0, 659.0, 659.0, 661.0, 659.0, 658.0, 658.0, 658.0, 659.0, 661.0, 660.0, 660.0, 659.0, 659.0, 659.0, 659.0, 659.0, 661.0, 660.0, 662.0, 663.0, 661.0, 658.0, 659.0, 659.0, 660.0, 661.0, 660.0, 658.0, 659.0, 659.0, 659.0, 661.0, 661.0, 659.0, 659.0, 659.0, 659.0, 660.0, 662.0, 660.0, 659.0, 659.0, 659.0, 659.0, 660.0, 660.0, 659.0, 659.0, 659.0, 659.0, 659.0, 662.0, 662.0, 659.0, 659.0, 659.0, 659.0, 658.0, 659.0, 661.0, 659.0, 660.0, 660.0, 659.0, 661.0, 660.0, 659.0, 660.0, 660.0, 662.0, 659.0, 659.0, 660.0, 659.0, 661.0, 662.0, 660.0, 661.0, 660.0, 662.0, 659.0, 659.0, 660.0, 659.0, 659.0, 659.0, 659.0, 659.0, 660.0, 659.0, 659.0, 660.0, 660.0, 662.0, 661.0, 659.0, 658.0, 659.0, 660.0, 663.0, 660.0, 659.0, 660.0, 660.0, 658.0, 658.0, 659.0, 661.0, 659.0, 659.0, 659.0, 659.0, 660.0, 662.0, 659.0, 658.0, 659.0, 662.0, 661.0, 659.0, 659.0, 660.0, 661.0, 660.0, 660.0, 660.0, 660.0, 662.0, 662.0, 662.0, 659.0, 659.0],
      "WindowWidth": [1440.0, 1437.0, 1440.0, 1431.0, 1430.0, 1434.0, 1434.0, 1432.0, 1431.0, 1434.0, 1434.0, 1434.0, 1429.0, 1431.0, 1430.0, 1438.0, 1431.0, 1430.0, 1432.0, 1430.0, 1432.0, 1429.0, 1430.0, 1432.0, 1435.0, 1431.0, 1432.0, 1433.0, 1432.0, 1437.0, 1440.0, 1432.0, 1434.0, 1435.0, 1433.0, 1435.0, 1436.0, 1432.0, 1428.0, 1429.0, 1429.0, 1429.0, 1435.0, 1435.0, 1437.0, 1429.0, 1428.0, 1430.0, 1431.0, 1431.0, 1437.0, 1434.0, 1430.0, 1428.0, 1431.0, 1430.0, 1432.0, 1439.0, 1434.0, 1432.0, 1430.0, 1431.0, 1431.0, 1431.0, 1434.0, 1434.0, 1434.0, 1433.0, 1432.0, 1434.0, 1428.0, 1432.0, 1437.0, 1433.0, 1431.0, 1431.0, 1431.0, 1430.0, 1434.0, 1431.0, 1437.0, 1437.0, 1435.0, 1432.0, 1435.0, 1429.0, 1429.0, 1428.0, 1430.0, 1427.0, 1428.0, 1434.0, 1436.0, 1430.0, 1430.0, 1429.0, 1435.0, 1436.0, 1434.0, 1435.0, 1432.0, 1434.0, 1439.0, 1433.0, 1431.0, 1430.0, 1432.0, 1435.0, 1431.0, 1429.0, 1428.0, 1428.0, 1431.0, 1435.0, 1434.0, 1434.0, 1431.0, 1430.0, 1431.0, 1430.0, 1430.0, 1435.0, 1435.0, 1438.0, 1441.0, 1438.0, 1429.0, 1430.0, 1431.0, 1433.0, 1435.0, 1433.0, 1428.0, 1431.0, 1431.0, 1431.0, 1437.0, 1435.0, 1430.0, 1431.0, 1431.0, 1430.0, 1433.0, 1440.0, 1435.0, 1432.0, 1432.0, 1431.0, 1432.0, 1434.0, 1434.0, 1432.0, 1432.0, 1432.0, 1430.0, 1431.0, 1439.0, 1438.0, 1431.0, 1431.0, 1430.0, 1430.0, 1429.0, 1432.0, 1435.0, 1431.0, 1434.0, 1434.0, 1432.0, 1436.0, 1433.0, 1431.0, 1433.0, 1435.0, 1439.0, 1432.0, 1431.0, 1433.0, 1432.0, 1435.0, 1438.0, 1433.0, 1436.0, 1435.0, 1439.0, 1431.0, 1430.0, 1433.0, 1430.0, 1430.0, 1430.0, 1430.0, 1432.0, 1434.0, 1431.0, 1432.0, 1433.0, 1435.0, 1438.0, 1435.0, 1430.0, 1429.0, 1431.0, 1434.0, 1441.0, 1433.0, 1431.0, 1434.0, 1434.0, 1429.0, 1427.0, 1431.0, 1436.0, 1432.0, 1432.0, 1431.0, 1430.0, 1435.0, 1439.0, 1430.0, 1428.0, 1431.0, 1438.0, 1435.0, 1432.0, 1431.0, 1434.0, 1437.0, 1433.0, 1433.0, 1433.0, 1433.0, 1438.0, 1439.0, 1440.0, 1432.0, 1430.0]
    },
    "slices": {}
  }
}