{
  "AcquisitionMatrixPE": 70,
  "AcquisitionNumber": 1,
  "AcquisitionTime": "14:55:34.610000",
  "BandwidthPerPixelPhaseEncode": 38.873,
  "BaseResolution": 70,
  "BodyPartExamined": "HEAD",
  "ConsistencyInfo": "N4_VE11B_LATEST_20150530",
  "ConversionSoftware": "dcm2niix",
  "ConversionSoftwareVersion": "v1.0.20190410  GCC6.3.0",
  "DerivedVendorReportedEchoSpacing": 0.000489996,
  "DeviceSerialNumber": "66088",
  "DwellTime": 2.9e-06,
  "EchoTime": 0.03,
  "EchoTrainLength": 53,
  "EffectiveEchoSpacing": 0.000367497,
  "FlipAngle": 90,
  "ImageOrientationPatientDICOM": [0.99838, -0.0450677, -0.0347173, 0.0278873, 0.919618, -0.391822],
  "ImageType": [
    "ORIGINAL",
    "PRIMARY",
    "M",
    "ND",
    "NORM",
    "MOSAIC"
],
  "ImagingFrequency": 123.191,
  "InPlanePhaseEncodingDirectionDICOM": "COL",
  "InstitutionAddress": "Street_StreetNo_City_District_IR_ZIP",
  "InstitutionName": "NBML",
  "InstitutionalDepartmentName": "Department",
  "MRAcquisitionType": "2D",
  "MagneticFieldStrength": 3,
  "Manufacturer": "Siemens",
  "ManufacturersModelName": "Prisma",
  "Modality": "MR",
  "ParallelReductionFactorInPlane": 2,
  "PartialFourier": 1,
  "PatientPosition": "HFS",
  "PercentPhaseFOV": 100,
  "PhaseEncodingDirection": "j-",
  "PhaseEncodingSteps": 105,
  "PhaseOversampling": 0.5,
  "PhaseResolution": 1,
  "PixelBandwidth": 2465,
  "ProcedureStepDescription": "NBML_Project_P_96169_Ebrahiminiya-Khaliq",
  "ProtocolName": "ep2d_p2_Task_3.5_measurment:237",
  "PulseSequenceDetails": "%SiemensSeq%_ep2d_pace",
  "ReceiveCoilActiveElements": "HC1-7;NC1",
  "ReceiveCoilName": "HeadNeck_64",
  "ReconMatrixPE": 70,
  "RefLinesPE": 24,
  "RepetitionTime": 2,
  "SAR": 0.0886805,
  "ScanOptions": "FS",
  "ScanningSequence": "EP",
  "SequenceName": "_epfid2d1_70",
  "SequenceVariant": "SK_OSP",
  "SeriesDescription": "ep2d_p2_Task_3.5_measurment:237",
  "SeriesNumber": 4,
  "ShimSetting": [2593, -4507, -3205, 608, -6, -96, 29, 30],
  "SliceThickness": 3.5,
  "SliceTiming": [0.99, 0, 1.0475, 0.0575, 1.1075, 0.1175, 1.165, 0.175, 1.2225, 0.2325, 1.28, 0.29, 1.34, 0.35, 1.3975, 0.4075, 1.455, 0.465, 1.515, 0.525, 1.5725, 0.5825, 1.63, 0.64, 1.6875, 0.7, 1.7475, 0.7575, 1.805, 0.815, 1.8625, 0.8725, 1.9225, 0.9325],
  "SoftwareVersions": "syngo_MR_E11",
  "SpacingBetweenSlices": 3.85,
  "StationName": "AWP66088",
  "TaskName": "categorySelectivity",
  "TotalReadoutTime": 0.0253573,
  "TxRefAmp": 220.255,
  "dcmmeta_affine": [
    [-3.5371193885803223, 0.0988006517291069, -0.19090314209461212, 126.05551147460938],
    [0.15966857969760895, 3.2580766677856445, -1.502342939376831, -85.37105560302734],
    [-0.12299860268831253, 1.3881683349609375, 3.53963565826416, -87.49275207519531],
    [0.0, 0.0, 0.0, 1.0]
],
  "dcmmeta_reorient_transform": [
    [0.0, -1.0, 0.0, 69.0],
    [1.0, 0.0, 0.0, 0.0],
    [0.0, 0.0, 1.0, 0.0],
    [0.0, 0.0, 0.0, 1.0]
],
  "dcmmeta_shape": [70, 70, 34, 237],
  "dcmmeta_slice_dim": 2,
  "dcmmeta_version": 0.6,
  "global": {
    "const": {
      "AccessionNumber": "M.BRZ",
      "AcquisitionMatrix": [70, 0, 0, 70],
      "AngioFlag": "N",
      "BitsAllocated": 16,
      "BitsStored": 12,
      "BodyPartExamined": "HEAD",
      "Columns": 420,
      "EchoNumbers": 1,
      "EchoTime": 30.0,
      "EchoTrainLength": 53,
      "FlipAngle": 90.0,
      "HighBit": 11,
      "ImageOrientationPatient": [0.99838049080764, -0.0450677426914, -0.0347173464335, 0.02788728095736, 0.91961843071225, -0.3918216959985],
      "ImagePositionPatient": [-769.15878287508, -681.65766788047, 272.74507060947],
      "ImageType": [
        "ORIGINAL",
        "PRIMARY",
        "M",
        "ND",
        "NORM",
        "MOSAIC"
],
      "ImagedNucleus": "1H",
      "ImagingFrequency": 123.191141,
      "InPlanePhaseEncodingDirection": "COL",
      "MRAcquisitionType": "2D",
      "MagneticFieldStrength": 3.0,
      "Manufacturer": "SIEMENS",
      "ManufacturerModelName": "Prisma",
      "Modality": "MR",
      "NumberOfAverages": 1.0,
      "NumberOfPhaseEncodingSteps": 105,
      "PercentPhaseFieldOfView": 100.0,
      "PercentSampling": 100.0,
      "PerformedProcedureStepStartTime": "144004.422000",
      "PhotometricInterpretation": "MONOCHROME2",
      "PixelBandwidth": 2465.0,
      "PixelRepresentation": 0,
      "PixelSpacing": [3.542857170105, 3.542857170105],
      "ProtocolName": "ep2d_p2_Task_3.5_measurment:237",
      "RepetitionTime": 2000.0,
      "Rows": 420,
      "SAR": 0.0886804680295,
      "SamplesPerPixel": 1,
      "ScanOptions": "FS",
      "ScanningSequence": "EP",
      "SequenceName": "*epfid2d1_70",
      "SequenceVariant": [
        "SK",
        "OSP"
],
      "SeriesDescription": "ep2d_p2_Task_3.5_measurment:237",
      "SeriesNumber": 4,
      "SeriesTime": "145624.139000",
      "SliceLocation": -53.376688573469,
      "SliceThickness": 3.5,
      "SmallestImagePixelValue": 0,
      "SoftwareVersions": "syngo MR E11",
      "SpacingBetweenSlices": 3.8499999498594,
      "SpecificCharacterSet": "ISO_IR 100",
      "StudyID": "1",
      "StudyTime": "144004.272000",
      "TransmitCoilName": "Body",
      "VariableFlipAngleFlag": "N",
      "WindowCenterWidthExplanation": "Algo1",
      "dBdt": 0.0},
    "slices": {}
  },
  "time": {
    "samples": {
      "AcquisitionNumber": [1, 2, 3, 4, 5, 6, 7, 8, 9, 10, 11, 12, 13, 14, 15, 16, 17, 18, 19, 20, 21, 22, 23, 24, 25, 26, 27, 28, 29, 30, 31, 32, 33, 34, 35, 36, 37, 38, 39, 40, 41, 42, 43, 44, 45, 46, 47, 48, 49, 50, 51, 52, 53, 54, 55, 56, 57, 58, 59, 60, 61, 62, 63, 64, 65, 66, 67, 68, 69, 70, 71, 72, 73, 74, 75, 76, 77, 78, 79, 80, 81, 82, 83, 84, 85, 86, 87, 88, 89, 90, 91, 92, 93, 94, 95, 96, 97, 98, 99, 100, 101, 102, 103, 104, 105, 106, 107, 108, 109, 110, 111, 112, 113, 114, 115, 116, 117, 118, 119, 120, 121, 122, 123, 124, 125, 126, 127, 128, 129, 130, 131, 132, 133, 134, 135, 136, 137, 138, 139, 140, 141, 142, 143, 144, 145, 146, 147, 148, 149, 150, 151, 152, 153, 154, 155, 156, 157, 158, 159, 160, 161, 162, 163, 164, 165, 166, 167, 168, 169, 170, 171, 172, 173, 174, 175, 176, 177, 178, 179, 180, 181, 182, 183, 184, 185, 186, 187, 188, 189, 190, 191, 192, 193, 194, 195, 196, 197, 198, 199, 200, 201, 202, 203, 204, 205, 206, 207, 208, 209, 210, 211, 212, 213, 214, 215, 216, 217, 218, 219, 220, 221, 222, 223, 224, 225, 226, 227, 228, 229, 230, 231, 232, 233, 234, 235, 236, 237],
      "AcquisitionTime": ["145534.610000", "145536.610000", "145538.610000", "145540.610000", "145542.610000", "145544.610000", "145546.610000", "145548.610000", "145550.610000", "145552.610000", "145554.610000", "145556.610000", "145558.610000", "145600.610000", "145602.610000", "145604.610000", "145606.610000", "145608.610000", "145610.610000", "145612.610000", "145614.610000", "145616.610000", "145618.610000", "145620.610000", "145622.610000", "145624.610000", "145626.610000", "145628.610000", "145630.610000", "145632.610000", "145634.610000", "145636.610000", "145638.610000", "145640.610000", "145642.610000", "145644.610000", "145646.610000", "145648.610000", "145650.610000", "145652.610000", "145654.610000", "145656.610000", "145658.610000", "145700.610000", "145702.610000", "145704.610000", "145706.610000", "145708.610000", "145710.610000", "145712.610000", "145714.610000", "145716.610000", "145718.610000", "145720.610000", "145722.610000", "145724.610000", "145726.610000", "145728.610000", "145730.610000", "145732.610000", "145734.610000", "145736.610000", "145738.610000", "145740.610000", "145742.610000", "145744.610000", "145746.610000", "145748.610000", "145750.610000", "145752.610000", "145754.610000", "145756.610000", "145758.610000", "145800.610000", "145802.610000", "145804.610000", "145806.610000", "145808.610000", "145810.610000", "145812.610000", "145814.610000", "145816.610000", "145818.610000", "145820.610000", "145822.610000", "145824.610000", "145826.610000", "145828.610000", "145830.610000", "145832.610000", "145834.610000", "145836.610000", "145838.610000", "145840.610000", "145842.610000", "145844.610000", "145846.610000", "145848.610000", "145850.610000", "145852.610000", "145854.610000", "145856.610000", "145858.610000", "145900.610000", "145902.610000", "145904.610000", "145906.610000", "145908.610000", "145910.610000", "145912.610000", "145914.610000", "145916.610000", "145918.610000", "145920.610000", "145922.610000", "145924.610000", "145926.610000", "145928.610000", "145930.610000", "145932.610000", "145934.610000", "145936.610000", "145938.610000", "145940.610000", "145942.610000", "145944.610000", "145946.610000", "145948.610000", "145950.610000", "145952.610000", "145954.610000", "145956.610000", "145958.610000", "150000.610000", "150002.610000", "150004.610000", "150006.610000", "150008.610000", "150010.610000", "150012.610000", "150014.610000", "150016.610000", "150018.610000", "150020.610000", "150022.610000", "150024.610000", "150026.610000", "150028.610000", "150030.610000", "150032.610000", "150034.610000", "150036.610000", "150038.610000", "150040.610000", "150042.610000", "150044.610000", "150046.610000", "150048.610000", "150050.610000", "150052.610000", "150054.610000", "150056.610000", "150058.610000", "150100.610000", "150102.610000", "150104.610000", "150106.610000", "150108.610000", "150110.610000", "150112.610000", "150114.610000", "150116.610000", "150118.610000", "150120.610000", "150122.610000", "150124.610000", "150126.610000", "150128.610000", "150130.610000", "150132.610000", "150134.610000", "150136.610000", "150138.610000", "150140.610000", "150142.610000", "150144.610000", "150146.610000", "150148.610000", "150150.610000", "150152.610000", "150154.610000", "150156.610000", "150158.610000", "150200.610000", "150202.610000", "150204.610000", "150206.610000", "150208.610000", "150210.610000", "150212.610000", "150214.610000", "150216.610000", "150218.610000", "150220.610000", "150222.610000", "150224.610000", "150226.610000", "150228.610000", "150230.610000", "150232.610000", "150234.610000", "150236.610000", "150238.610000", "150240.610000", "150242.610000", "150244.610000", "150246.610000", "150248.610000", "150250.610000", "150252.610000", "150254.610000", "150256.610000", "150258.610000", "150300.610000", "150302.610000", "150304.610000", "150306.610000", "150308.610000", "150310.610000", "150312.610000", "150314.610000", "150316.610000", "150318.610000", "150320.610000", "150322.610000", "150324.610000", "150326.610000"],
      "ContentTime": ["145624.145000", "145624.148000", "145624.151000", "145624.153000", "145624.156000", "145624.159000", "145624.161000", "145624.163000", "145624.166000", "145624.169000", "145624.171000", "145624.174000", "145624.176000", "145624.179000", "145624.181000", "145624.184000", "145624.187000", "145624.189000", "145624.197000", "145624.199000", "145624.202000", "145624.204000", "145624.207000", "145624.209000", "145704.136000", "145704.139000", "145704.141000", "145704.144000", "145704.147000", "145704.149000", "145704.151000", "145704.154000", "145704.156000", "145704.158000", "145704.161000", "145704.163000", "145704.166000", "145704.168000", "145704.170000", "145704.173000", "145704.175000", "145704.178000", "145704.180000", "145704.182000", "145744.136000", "145744.139000", "145744.141000", "145744.144000", "145744.146000", "145744.149000", "145744.151000", "145744.153000", "145744.156000", "145744.158000", "145744.161000", "145744.163000", "145744.166000", "145744.168000", "145744.170000", "145744.173000", "145744.175000", "145744.178000", "145744.180000", "145744.182000", "145824.137000", "145824.140000", "145824.150000", "145824.153000", "145824.156000", "145824.158000", "145824.161000", "145824.164000", "145824.166000", "145824.168000", "145824.171000", "145824.173000", "145824.175000", "145824.178000", "145824.180000", "145824.183000", "145824.185000", "145824.187000", "145824.190000", "145824.192000", "145904.138000", "145904.141000", "145904.144000", "145904.146000", "145904.149000", "145904.151000", "145904.153000", "145904.156000", "145904.158000", "145904.161000", "145904.163000", "145904.170000", "145904.172000", "145904.174000", "145904.177000", "145904.179000", "145904.182000", "145904.184000", "145904.186000", "145904.189000", "145944.137000", "145944.140000", "145944.142000", "145944.145000", "145944.148000", "145944.150000", "145944.153000", "145944.156000", "145944.158000", "145944.161000", "145944.163000", "145944.166000", "145944.168000", "145944.171000", "145944.174000", "145944.176000", "145944.179000", "145944.181000", "145944.184000", "145944.186000", "150024.136000", "150024.139000", "150024.142000", "150024.144000", "150024.146000", "150024.149000", "150024.151000", "150024.154000", "150024.156000", "150024.158000", "150024.161000", "150024.163000", "150024.166000", "150024.168000", "150024.171000", "150024.173000", "150024.175000", "150024.178000", "150024.180000", "150024.183000", "150104.138000", "150104.140000", "150104.143000", "150104.145000", "150104.148000", "150104.150000", "150104.153000", "150104.156000", "150104.158000", "150104.161000", "150104.163000", "150104.166000", "150104.169000", "150104.191000", "150104.193000", "150104.195000", "150104.198000", "150104.200000", "150104.203000", "150104.205000", "150144.137000", "150144.139000", "150144.142000", "150144.145000", "150144.147000", "150144.150000", "150144.152000", "150144.155000", "150144.157000", "150144.160000", "150144.162000", "150144.165000", "150144.168000", "150144.179000", "150144.182000", "150144.185000", "150144.187000", "150144.190000", "150144.192000", "150144.197000", "150224.136000", "150224.139000", "150224.141000", "150224.144000", "150224.146000", "150224.149000", "150224.151000", "150224.154000", "150224.156000", "150224.164000", "150224.167000", "150224.169000", "150224.172000", "150224.174000", "150224.176000", "150224.179000", "150224.181000", "150224.184000", "150224.186000", "150224.189000", "150304.137000", "150304.140000", "150304.142000", "150304.145000", "150304.148000", "150304.150000", "150304.153000", "150304.155000", "150304.158000", "150304.160000", "150304.163000", "150304.165000", "150304.168000", "150304.170000", "150304.173000", "150304.176000", "150304.178000", "150304.181000", "150304.183000", "150304.187000", "150328.398000", "150328.401000", "150328.404000", "150328.406000", "150328.409000", "150328.411000", "150328.415000", "150328.417000", "150328.420000", "150328.422000", "150328.425000", "150328.428000", "150328.431000"],
      "InstanceCreationTime": ["145624.145000", "145624.148000", "145624.151000", "145624.153000", "145624.156000", "145624.159000", "145624.161000", "145624.163000", "145624.166000", "145624.169000", "145624.171000", "145624.174000", "145624.176000", "145624.179000", "145624.181000", "145624.184000", "145624.187000", "145624.189000", "145624.197000", "145624.199000", "145624.202000", "145624.204000", "145624.207000", "145624.209000", "145704.136000", "145704.139000", "145704.141000", "145704.144000", "145704.147000", "145704.149000", "145704.151000", "145704.154000", "145704.156000", "145704.158000", "145704.161000", "145704.163000", "145704.166000", "145704.168000", "145704.170000", "145704.173000", "145704.175000", "145704.178000", "145704.180000", "145704.182000", "145744.136000", "145744.139000", "145744.141000", "145744.144000", "145744.146000", "145744.149000", "145744.151000", "145744.153000", "145744.156000", "145744.158000", "145744.161000", "145744.163000", "145744.166000", "145744.168000", "145744.170000", "145744.173000", "145744.175000", "145744.178000", "145744.180000", "145744.182000", "145824.137000", "145824.140000", "145824.150000", "145824.153000", "145824.156000", "145824.158000", "145824.161000", "145824.164000", "145824.166000", "145824.168000", "145824.171000", "145824.173000", "145824.175000", "145824.178000", "145824.180000", "145824.183000", "145824.185000", "145824.187000", "145824.190000", "145824.192000", "145904.138000", "145904.141000", "145904.144000", "145904.146000", "145904.149000", "145904.151000", "145904.153000", "145904.156000", "145904.158000", "145904.161000", "145904.163000", "145904.170000", "145904.172000", "145904.174000", "145904.177000", "145904.179000", "145904.182000", "145904.184000", "145904.186000", "145904.189000", "145944.137000", "145944.140000", "145944.142000", "145944.145000", "145944.148000", "145944.150000", "145944.153000", "145944.156000", "145944.158000", "145944.161000", "145944.163000", "145944.166000", "145944.168000", "145944.171000", "145944.174000", "145944.176000", "145944.179000", "145944.181000", "145944.184000", "145944.186000", "150024.136000", "150024.139000", "150024.142000", "150024.144000", "150024.146000", "150024.149000", "150024.151000", "150024.154000", "150024.156000", "150024.158000", "150024.161000", "150024.163000", "150024.166000", "150024.168000", "150024.171000", "150024.173000", "150024.175000", "150024.178000", "150024.180000", "150024.183000", "150104.138000", "150104.140000", "150104.143000", "150104.145000", "150104.148000", "150104.150000", "150104.153000", "150104.156000", "150104.158000", "150104.161000", "150104.163000", "150104.166000", "150104.169000", "150104.191000", "150104.193000", "150104.195000", "150104.198000", "150104.200000", "150104.203000", "150104.205000", "150144.137000", "150144.139000", "150144.142000", "150144.145000", "150144.147000", "150144.150000", "150144.152000", "150144.155000", "150144.157000", "150144.160000", "150144.162000", "150144.165000", "150144.168000", "150144.179000", "150144.182000", "150144.185000", "150144.187000", "150144.190000", "150144.192000", "150144.197000", "150224.136000", "150224.139000", "150224.141000", "150224.144000", "150224.146000", "150224.149000", "150224.151000", "150224.154000", "150224.156000", "150224.164000", "150224.167000", "150224.169000", "150224.172000", "150224.174000", "150224.176000", "150224.179000", "150224.181000", "150224.184000", "150224.186000", "150224.189000", "150304.137000", "150304.140000", "150304.142000", "150304.145000", "150304.148000", "150304.150000", "150304.153000", "150304.155000", "150304.158000", "150304.160000", "150304.163000", "150304.165000", "150304.168000", "150304.170000", "150304.173000", "150304.176000", "150304.178000", "150304.181000", "150304.183000", "150304.187000", "150328.398000", "150328.401000", "150328.404000", "150328.406000", "150328.409000", "150328.411000", "150328.415000", "150328.417000", "150328.420000", "150328.422000", "150328.425000", "150328.428000", "150328.431000"],
      "InstanceNumber": [1, 2, 3, 4, 5, 6, 7, 8, 9, 10, 11, 12, 13, 14, 15, 16, 17, 18, 19, 20, 21, 22, 23, 24, 25, 26, 27, 28, 29, 30, 31, 32, 33, 34, 35, 36, 37, 38, 39, 40, 41, 42, 43, 44, 45, 46, 47, 48, 49, 50, 51, 52, 53, 54, 55, 56, 57, 58, 59, 60, 61, 62, 63, 64, 65, 66, 67, 68, 69, 70, 71, 72, 73, 74, 75, 76, 77, 78, 79, 80, 81, 82, 83, 84, 85, 86, 87, 88, 89, 90, 91, 92, 93, 94, 95, 96, 97, 98, 99, 100, 101, 102, 103, 104, 105, 106, 107, 108, 109, 110, 111, 112, 113, 114, 115, 116, 117, 118, 119, 120, 121, 122, 123, 124, 125, 126, 127, 128, 129, 130, 131, 132, 133, 134, 135, 136, 137, 138, 139, 140, 141, 142, 143, 144, 145, 146, 147, 148, 149, 150, 151, 152, 153, 154, 155, 156, 157, 158, 159, 160, 161, 162, 163, 164, 165, 166, 167, 168, 169, 170, 171, 172, 173, 174, 175, 176, 177, 178, 179, 180, 181, 182, 183, 184, 185, 186, 187, 188, 189, 190, 191, 192, 193, 194, 195, 196, 197, 198, 199, 200, 201, 202, 203, 204, 205, 206, 207, 208, 209, 210, 211, 212, 213, 214, 215, 216, 217, 218, 219, 220, 221, 222, 223, 224, 225, 226, 227, 228, 229, 230, 231, 232, 233, 234, 235, 236, 237],
      "LargestImagePixelValue": [1690, 2083, 2373, 1853, 1606, 2118, 1856, 1786, 1693, 1889, 1858, 1622, 1968, 1620, 2125, 1591, 1936, 1651, 1747, 1946, 1674, 2059, 1610, 1947, 1589, 1710, 1661, 1691, 2393, 1664, 1933, 1924, 1688, 1831, 1710, 1604, 1723, 2080, 1657, 1833, 1591, 2133, 1617, 1794, 1677, 1947, 1577, 1705, 2249, 1651, 1979, 1990, 1672, 1602, 1765, 1653, 2179, 1662, 1595, 1817, 1988, 1589, 1790, 1662, 2015, 1572, 1616, 1851, 1616, 1726, 1690, 1769, 1992, 1788, 2282, 1635, 2048, 1606, 1870, 1990, 1723, 1583, 1828, 1789, 1619, 1575, 1962, 1682, 1637, 1828, 2182, 1645, 1638, 1824, 2136, 1610, 1628, 1728, 1853, 1567, 1744, 1612, 1932, 1606, 1581, 1794, 1570, 1791, 1582, 1717, 2123, 1660, 1731, 2056, 1565, 1852, 1584, 1965, 1555, 1639, 1711, 2075, 1733, 1731, 1657, 1783, 1564, 1812, 1776, 2166, 1741, 1677, 1653, 2299, 1809, 1632, 1745, 1695, 1583, 2505, 1631, 1788, 1780, 1623, 2265, 1619, 1623, 1728, 1540, 2213, 1610, 1906, 1521, 2000, 1604, 1741, 1629, 1617, 1782, 1876, 2101, 1701, 1684, 1718, 1670, 2185, 1562, 1680, 1641, 1662, 1963, 1562, 1713, 2006, 1747, 1692, 1680, 1878, 1795, 1606, 1799, 1579, 1550, 2296, 1663, 1595, 1778, 1851, 2041, 1865, 1637, 1925, 1624, 1816, 2223, 1628, 1830, 1988, 1579, 1808, 1703, 1730, 1576, 1833, 1652, 1691, 1871, 1703, 1663, 1720, 1685, 1688, 1695, 1629, 1655, 1857, 1671, 1987, 1746, 1744, 1757, 1796, 1596, 1867, 1649, 1997, 1640, 1584, 1812, 1632, 1990, 1777, 1571, 1806, 1722, 1720, 1578],
      "WindowCenter": [657.0, 656.0, 657.0, 655.0, 653.0, 656.0, 653.0, 654.0, 655.0, 655.0, 654.0, 652.0, 655.0, 654.0, 655.0, 654.0, 654.0, 654.0, 654.0, 656.0, 653.0, 654.0, 653.0, 655.0, 653.0, 654.0, 655.0, 654.0, 656.0, 653.0, 654.0, 654.0, 653.0, 655.0, 654.0, 654.0, 655.0, 655.0, 654.0, 654.0, 653.0, 655.0, 653.0, 655.0, 654.0, 655.0, 653.0, 656.0, 656.0, 653.0, 655.0, 655.0, 654.0, 653.0, 655.0, 654.0, 655.0, 654.0, 654.0, 655.0, 654.0, 653.0, 654.0, 654.0, 656.0, 654.0, 654.0, 656.0, 654.0, 655.0, 655.0, 656.0, 656.0, 655.0, 656.0, 653.0, 654.0, 653.0, 654.0, 655.0, 653.0, 654.0, 655.0, 654.0, 652.0, 653.0, 654.0, 654.0, 654.0, 655.0, 655.0, 654.0, 653.0, 654.0, 655.0, 653.0, 654.0, 655.0, 654.0, 653.0, 654.0, 653.0, 654.0, 653.0, 653.0, 655.0, 654.0, 655.0, 655.0, 655.0, 656.0, 653.0, 654.0, 655.0, 653.0, 655.0, 653.0, 655.0, 653.0, 654.0, 654.0, 655.0, 655.0, 655.0, 654.0, 654.0, 652.0, 654.0, 655.0, 656.0, 655.0, 654.0, 654.0, 656.0, 654.0, 653.0, 654.0, 654.0, 653.0, 656.0, 653.0, 653.0, 654.0, 654.0, 655.0, 653.0, 653.0, 654.0, 654.0, 656.0, 654.0, 653.0, 653.0, 656.0, 654.0, 654.0, 654.0, 654.0, 655.0, 655.0, 655.0, 653.0, 654.0, 654.0, 654.0, 655.0, 653.0, 654.0, 654.0, 653.0, 654.0, 653.0, 654.0, 654.0, 653.0, 653.0, 653.0, 654.0, 654.0, 652.0, 653.0, 653.0, 654.0, 656.0, 652.0, 654.0, 654.0, 655.0, 654.0, 653.0, 652.0, 653.0, 653.0, 655.0, 655.0, 652.0, 654.0, 655.0, 654.0, 654.0, 653.0, 654.0, 654.0, 655.0, 653.0, 654.0, 655.0, 653.0, 653.0, 654.0, 654.0, 654.0, 654.0, 654.0, 654.0, 655.0, 654.0, 656.0, 655.0, 654.0, 654.0, 655.0, 653.0, 654.0, 653.0, 654.0, 653.0, 653.0, 654.0, 653.0, 654.0, 655.0, 653.0, 654.0, 654.0, 653.0, 654.0],
      "WindowWidth": [1429.0, 1427.0, 1428.0, 1422.0, 1420.0, 1425.0, 1416.0, 1419.0, 1423.0, 1424.0, 1420.0, 1414.0, 1423.0, 1421.0, 1425.0, 1420.0, 1421.0, 1419.0, 1421.0, 1425.0, 1418.0, 1422.0, 1418.0, 1423.0, 1417.0, 1420.0, 1423.0, 1421.0, 1426.0, 1419.0, 1421.0, 1420.0, 1419.0, 1422.0, 1421.0, 1421.0, 1423.0, 1424.0, 1419.0, 1421.0, 1418.0, 1424.0, 1418.0, 1422.0, 1422.0, 1424.0, 1419.0, 1424.0, 1427.0, 1419.0, 1422.0, 1422.0, 1420.0, 1418.0, 1424.0, 1421.0, 1425.0, 1420.0, 1422.0, 1424.0, 1420.0, 1417.0, 1421.0, 1420.0, 1424.0, 1420.0, 1420.0, 1426.0, 1422.0, 1424.0, 1425.0, 1426.0, 1427.0, 1423.0, 1426.0, 1419.0, 1422.0, 1417.0, 1420.0, 1422.0, 1419.0, 1420.0, 1422.0, 1419.0, 1416.0, 1417.0, 1421.0, 1420.0, 1419.0, 1422.0, 1424.0, 1420.0, 1419.0, 1420.0, 1424.0, 1419.0, 1422.0, 1422.0, 1422.0, 1418.0, 1421.0, 1419.0, 1421.0, 1417.0, 1418.0, 1423.0, 1421.0, 1423.0, 1423.0, 1424.0, 1426.0, 1418.0, 1419.0, 1423.0, 1418.0, 1422.0, 1417.0, 1422.0, 1417.0, 1421.0, 1422.0, 1423.0, 1423.0, 1424.0, 1422.0, 1420.0, 1417.0, 1422.0, 1423.0, 1428.0, 1422.0, 1422.0, 1421.0, 1426.0, 1421.0, 1418.0, 1419.0, 1419.0, 1418.0, 1425.0, 1418.0, 1419.0, 1421.0, 1421.0, 1425.0, 1418.0, 1419.0, 1421.0, 1420.0, 1427.0, 1419.0, 1420.0, 1418.0, 1425.0, 1420.0, 1422.0, 1419.0, 1420.0, 1424.0, 1424.0, 1424.0, 1418.0, 1420.0, 1421.0, 1420.0, 1424.0, 1418.0, 1421.0, 1421.0, 1419.0, 1421.0, 1418.0, 1422.0, 1422.0, 1419.0, 1418.0, 1417.0, 1421.0, 1420.0, 1415.0, 1419.0, 1418.0, 1420.0, 1426.0, 1416.0, 1420.0, 1421.0, 1423.0, 1421.0, 1418.0, 1416.0, 1418.0, 1418.0, 1422.0, 1425.0, 1416.0, 1420.0, 1422.0, 1420.0, 1420.0, 1419.0, 1421.0, 1421.0, 1422.0, 1419.0, 1420.0, 1422.0, 1418.0, 1417.0, 1421.0, 1421.0, 1420.0, 1419.0, 1421.0, 1422.0, 1424.0, 1421.0, 1425.0, 1422.0, 1422.0, 1421.0, 1422.0, 1418.0, 1421.0, 1418.0, 1421.0, 1419.0, 1419.0, 1420.0, 1418.0, 1421.0, 1422.0, 1418.0, 1420.0, 1419.0, 1419.0, 1420.0]
    },
    "slices": {}
  }
}