{
  "AcquisitionMatrixPE": 70,
  "AcquisitionNumber": 1,
  "AcquisitionTime": "15:07:56.552500",
  "BandwidthPerPixelPhaseEncode": 38.873,
  "BaseResolution": 70,
  "BodyPartExamined": "HEAD",
  "ConsistencyInfo": "N4_VE11B_LATEST_20150530",
  "ConversionSoftware": "dcm2niix",
  "ConversionSoftwareVersion": "v1.0.20190410  GCC6.3.0",
  "DerivedVendorReportedEchoSpacing": 0.000489996,
  "DeviceSerialNumber": "66088",
  "DwellTime": 2.9e-06,
  "EchoTime": 0.03,
  "EchoTrainLength": 53,
  "EffectiveEchoSpacing": 0.000367497,
  "FlipAngle": 90,
  "ImageOrientationPatientDICOM": [0.99838, -0.0450677, -0.0347173, 0.0278873, 0.919618, -0.391822],
  "ImageType": [
    "ORIGINAL",
    "PRIMARY",
    "M",
    "ND",
    "NORM",
    "MOSAIC"
],
  "ImagingFrequency": 123.191,
  "InPlanePhaseEncodingDirectionDICOM": "COL",
  "InstitutionAddress": "Street_StreetNo_City_District_IR_ZIP",
  "InstitutionName": "NBML",
  "InstitutionalDepartmentName": "Department",
  "MRAcquisitionType": "2D",
  "MagneticFieldStrength": 3,
  "Manufacturer": "Siemens",
  "ManufacturersModelName": "Prisma",
  "Modality": "MR",
  "ParallelReductionFactorInPlane": 2,
  "PartialFourier": 1,
  "PatientPosition": "HFS",
  "PercentPhaseFOV": 100,
  "PhaseEncodingDirection": "j-",
  "PhaseEncodingSteps": 105,
  "PhaseOversampling": 0.5,
  "PhaseResolution": 1,
  "PixelBandwidth": 2465,
  "ProcedureStepDescription": "NBML_Project_P_96169_Ebrahiminiya-Khaliq",
  "ProtocolName": "ep2d_p2_Task_3.5_measurment:237",
  "PulseSequenceDetails": "%SiemensSeq%_ep2d_pace",
  "ReceiveCoilActiveElements": "HC1-7;NC1",
  "ReceiveCoilName": "HeadNeck_64",
  "ReconMatrixPE": 70,
  "RefLinesPE": 24,
  "RepetitionTime": 2,
  "SAR": 0.0886805,
  "ScanOptions": "FS",
  "ScanningSequence": "EP",
  "SequenceName": "_epfid2d1_70",
  "SequenceVariant": "SK_OSP",
  "SeriesDescription": "ep2d_p2_Task_3.5_measurment:237",
  "SeriesNumber": 5,
  "ShimSetting": [2593, -4507, -3205, 608, -6, -96, 29, 30],
  "SliceThickness": 3.5,
  "SliceTiming": [0.99, 0, 1.0475, 0.0575, 1.1075, 0.1175, 1.165, 0.175, 1.2225, 0.2325, 1.28, 0.29, 1.34, 0.35, 1.3975, 0.4075, 1.455, 0.465, 1.515, 0.525, 1.5725, 0.5825, 1.63, 0.64, 1.69, 0.7, 1.7475, 0.7575, 1.805, 0.815, 1.8625, 0.8725, 1.9225, 0.9325],
  "SoftwareVersions": "syngo_MR_E11",
  "SpacingBetweenSlices": 3.85,
  "StationName": "AWP66088",
  "TaskName": "categorySelectivity",
  "TotalReadoutTime": 0.0253573,
  "TxRefAmp": 220.255,
  "dcmmeta_affine": [
    [-3.5371193885803223, 0.0988006517291069, -0.19090314209461212, 126.05551147460938],
    [0.15966857969760895, 3.2580766677856445, -1.502342939376831, -85.37105560302734],
    [-0.12299860268831253, 1.3881683349609375, 3.53963565826416, -87.49275207519531],
    [0.0, 0.0, 0.0, 1.0]
],
  "dcmmeta_reorient_transform": [
    [0.0, -1.0, 0.0, 69.0],
    [1.0, 0.0, 0.0, 0.0],
    [0.0, 0.0, 1.0, 0.0],
    [0.0, 0.0, 0.0, 1.0]
],
  "dcmmeta_shape": [70, 70, 34, 237],
  "dcmmeta_slice_dim": 2,
  "dcmmeta_version": 0.6,
  "global": {
    "const": {
      "AccessionNumber": "M.BRZ",
      "AcquisitionMatrix": [70, 0, 0, 70],
      "AngioFlag": "N",
      "BitsAllocated": 16,
      "BitsStored": 12,
      "BodyPartExamined": "HEAD",
      "Columns": 420,
      "EchoNumbers": 1,
      "EchoTime": 30.0,
      "EchoTrainLength": 53,
      "FlipAngle": 90.0,
      "HighBit": 11,
      "ImageOrientationPatient": [0.99838049080764, -0.0450677426914, -0.0347173464335, 0.02788728095736, 0.91961843071225, -0.3918216959985],
      "ImagePositionPatient": [-769.15878287508, -681.65766788047, 272.74507060947],
      "ImageType": [
        "ORIGINAL",
        "PRIMARY",
        "M",
        "ND",
        "NORM",
        "MOSAIC"
],
      "ImagedNucleus": "1H",
      "ImagingFrequency": 123.191141,
      "InPlanePhaseEncodingDirection": "COL",
      "MRAcquisitionType": "2D",
      "MagneticFieldStrength": 3.0,
      "Manufacturer": "SIEMENS",
      "ManufacturerModelName": "Prisma",
      "Modality": "MR",
      "NumberOfAverages": 1.0,
      "NumberOfPhaseEncodingSteps": 105,
      "PercentPhaseFieldOfView": 100.0,
      "PercentSampling": 100.0,
      "PerformedProcedureStepStartTime": "144004.422000",
      "PhotometricInterpretation": "MONOCHROME2",
      "PixelBandwidth": 2465.0,
      "PixelRepresentation": 0,
      "PixelSpacing": [3.542857170105, 3.542857170105],
      "ProtocolName": "ep2d_p2_Task_3.5_measurment:237",
      "RepetitionTime": 2000.0,
      "Rows": 420,
      "SAR": 0.0886804680295,
      "SamplesPerPixel": 1,
      "ScanOptions": "FS",
      "ScanningSequence": "EP",
      "SequenceName": "*epfid2d1_70",
      "SequenceVariant": [
        "SK",
        "OSP"
],
      "SeriesDescription": "ep2d_p2_Task_3.5_measurment:237",
      "SeriesNumber": 5,
      "SeriesTime": "150841.990000",
      "SliceLocation": -53.376688573469,
      "SliceThickness": 3.5,
      "SmallestImagePixelValue": 0,
      "SoftwareVersions": "syngo MR E11",
      "SpacingBetweenSlices": 3.8499999498594,
      "SpecificCharacterSet": "ISO_IR 100",
      "StudyID": "1",
      "StudyTime": "144004.272000",
      "TransmitCoilName": "Body",
      "VariableFlipAngleFlag": "N",
      "WindowCenterWidthExplanation": "Algo1",
      "dBdt": 0.0},
    "slices": {}
  },
  "time": {
    "samples": {
      "AcquisitionNumber": [1, 2, 3, 4, 5, 6, 7, 8, 9, 10, 11, 12, 13, 14, 15, 16, 17, 18, 19, 20, 21, 22, 23, 24, 25, 26, 27, 28, 29, 30, 31, 32, 33, 34, 35, 36, 37, 38, 39, 40, 41, 42, 43, 44, 45, 46, 47, 48, 49, 50, 51, 52, 53, 54, 55, 56, 57, 58, 59, 60, 61, 62, 63, 64, 65, 66, 67, 68, 69, 70, 71, 72, 73, 74, 75, 76, 77, 78, 79, 80, 81, 82, 83, 84, 85, 86, 87, 88, 89, 90, 91, 92, 93, 94, 95, 96, 97, 98, 99, 100, 101, 102, 103, 104, 105, 106, 107, 108, 109, 110, 111, 112, 113, 114, 115, 116, 117, 118, 119, 120, 121, 122, 123, 124, 125, 126, 127, 128, 129, 130, 131, 132, 133, 134, 135, 136, 137, 138, 139, 140, 141, 142, 143, 144, 145, 146, 147, 148, 149, 150, 151, 152, 153, 154, 155, 156, 157, 158, 159, 160, 161, 162, 163, 164, 165, 166, 167, 168, 169, 170, 171, 172, 173, 174, 175, 176, 177, 178, 179, 180, 181, 182, 183, 184, 185, 186, 187, 188, 189, 190, 191, 192, 193, 194, 195, 196, 197, 198, 199, 200, 201, 202, 203, 204, 205, 206, 207, 208, 209, 210, 211, 212, 213, 214, 215, 216, 217, 218, 219, 220, 221, 222, 223, 224, 225, 226, 227, 228, 229, 230, 231, 232, 233, 234, 235, 236, 237],
      "AcquisitionTime": ["150756.552500", "150758.552500", "150800.552500", "150802.552500", "150804.552500", "150806.552500", "150808.552500", "150810.552500", "150812.552500", "150814.552500", "150816.552500", "150818.552500", "150820.552500", "150822.552500", "150824.552500", "150826.552500", "150828.552500", "150830.552500", "150832.552500", "150834.552500", "150836.552500", "150838.552500", "150840.552500", "150842.552500", "150844.552500", "150846.552500", "150848.552500", "150850.552500", "150852.552500", "150854.552500", "150856.552500", "150858.552500", "150900.552500", "150902.552500", "150904.552500", "150906.552500", "150908.552500", "150910.552500", "150912.552500", "150914.552500", "150916.552500", "150918.552500", "150920.552500", "150922.552500", "150924.552500", "150926.552500", "150928.552500", "150930.552500", "150932.552500", "150934.552500", "150936.552500", "150938.552500", "150940.552500", "150942.552500", "150944.552500", "150946.552500", "150948.552500", "150950.552500", "150952.552500", "150954.552500", "150956.552500", "150958.552500", "151000.552500", "151002.552500", "151004.552500", "151006.552500", "151008.552500", "151010.552500", "151012.552500", "151014.552500", "151016.552500", "151018.552500", "151020.552500", "151022.552500", "151024.552500", "151026.552500", "151028.552500", "151030.552500", "151032.552500", "151034.552500", "151036.552500", "151038.552500", "151040.552500", "151042.552500", "151044.552500", "151046.552500", "151048.552500", "151050.552500", "151052.552500", "151054.552500", "151056.552500", "151058.552500", "151100.552500", "151102.552500", "151104.552500", "151106.552500", "151108.552500", "151110.552500", "151112.552500", "151114.552500", "151116.552500", "151118.552500", "151120.552500", "151122.552500", "151124.552500", "151126.552500", "151128.552500", "151130.552500", "151132.552500", "151134.552500", "151136.552500", "151138.552500", "151140.552500", "151142.552500", "151144.552500", "151146.552500", "151148.552500", "151150.552500", "151152.552500", "151154.552500", "151156.552500", "151158.552500", "151200.552500", "151202.552500", "151204.552500", "151206.552500", "151208.552500", "151210.552500", "151212.552500", "151214.552500", "151216.552500", "151218.552500", "151220.552500", "151222.552500", "151224.552500", "151226.552500", "151228.552500", "151230.552500", "151232.552500", "151234.552500", "151236.552500", "151238.552500", "151240.552500", "151242.552500", "151244.552500", "151246.552500", "151248.552500", "151250.552500", "151252.552500", "151254.552500", "151256.552500", "151258.552500", "151300.552500", "151302.552500", "151304.552500", "151306.552500", "151308.552500", "151310.552500", "151312.552500", "151314.552500", "151316.552500", "151318.552500", "151320.552500", "151322.552500", "151324.552500", "151326.552500", "151328.552500", "151330.552500", "151332.552500", "151334.552500", "151336.552500", "151338.552500", "151340.552500", "151342.552500", "151344.552500", "151346.552500", "151348.552500", "151350.552500", "151352.552500", "151354.552500", "151356.552500", "151358.552500", "151400.552500", "151402.552500", "151404.552500", "151406.552500", "151408.552500", "151410.552500", "151412.552500", "151414.552500", "151416.552500", "151418.552500", "151420.552500", "151422.552500", "151424.552500", "151426.552500", "151428.552500", "151430.552500", "151432.552500", "151434.552500", "151436.552500", "151438.552500", "151440.552500", "151442.552500", "151444.552500", "151446.552500", "151448.552500", "151450.552500", "151452.552500", "151454.552500", "151456.552500", "151458.552500", "151500.552500", "151502.552500", "151504.552500", "151506.552500", "151508.552500", "151510.552500", "151512.552500", "151514.552500", "151516.552500", "151518.552500", "151520.552500", "151522.552500", "151524.552500", "151526.552500", "151528.552500", "151530.552500", "151532.552500", "151534.552500", "151536.552500", "151538.552500", "151540.552500", "151542.552500", "151544.552500", "151546.552500", "151548.552500"],
      "ContentTime": ["150841.994000", "150841.998000", "150842.003000", "150842.006000", "150842.008000", "150842.012000", "150842.014000", "150842.017000", "150842.020000", "150842.024000", "150842.027000", "150842.030000", "150842.033000", "150842.036000", "150842.039000", "150842.042000", "150842.045000", "150842.048000", "150842.051000", "150842.054000", "150842.057000", "150842.060000", "150921.987000", "150921.990000", "150921.993000", "150921.996000", "150921.998000", "150922.002000", "150922.005000", "150922.008000", "150922.011000", "150922.014000", "150922.017000", "150922.019000", "150922.022000", "150922.025000", "150922.028000", "150922.030000", "150922.033000", "150922.036000", "150922.039000", "150922.042000", "151001.987000", "151001.990000", "151001.993000", "151001.996000", "151002.000000", "151002.003000", "151002.006000", "151002.008000", "151002.011000", "151002.014000", "151002.017000", "151002.020000", "151002.022000", "151002.025000", "151002.028000", "151002.031000", "151002.034000", "151002.036000", "151002.039000", "151002.042000", "151041.988000", "151041.991000", "151041.994000", "151041.996000", "151042.000000", "151042.003000", "151042.006000", "151042.009000", "151042.012000", "151042.015000", "151042.018000", "151042.021000", "151042.024000", "151042.027000", "151042.030000", "151042.033000", "151042.036000", "151042.039000", "151042.042000", "151042.045000", "151121.987000", "151121.990000", "151121.994000", "151121.997000", "151122.001000", "151122.004000", "151122.007000", "151122.010000", "151122.013000", "151122.016000", "151122.020000", "151122.023000", "151122.026000", "151122.029000", "151122.032000", "151122.035000", "151122.048000", "151122.051000", "151122.054000", "151122.057000", "151201.987000", "151201.990000", "151201.994000", "151201.997000", "151202.002000", "151202.005000", "151202.012000", "151202.015000", "151202.018000", "151202.021000", "151202.024000", "151202.027000", "151202.030000", "151202.033000", "151202.036000", "151202.039000", "151202.042000", "151202.045000", "151202.049000", "151202.052000", "151241.988000", "151241.991000", "151241.994000", "151241.997000", "151242.000000", "151242.003000", "151242.005000", "151242.008000", "151242.011000", "151242.014000", "151242.017000", "151242.020000", "151242.023000", "151242.025000", "151242.028000", "151242.032000", "151242.034000", "151242.037000", "151242.040000", "151242.043000", "151301.988000", "151301.991000", "151301.994000", "151301.997000", "151302.001000", "151302.004000", "151302.007000", "151302.010000", "151302.013000", "151302.015000", "151341.987000", "151341.990000", "151341.993000", "151341.996000", "151342.001000", "151342.004000", "151342.007000", "151342.009000", "151342.013000", "151342.016000", "151342.018000", "151342.021000", "151342.024000", "151342.027000", "151342.030000", "151342.033000", "151342.036000", "151342.039000", "151342.042000", "151342.044000", "151421.987000", "151421.990000", "151422.016000", "151422.019000", "151422.022000", "151422.025000", "151422.028000", "151422.031000", "151422.034000", "151422.037000", "151422.042000", "151422.045000", "151422.049000", "151422.052000", "151422.055000", "151422.058000", "151422.061000", "151422.064000", "151422.067000", "151422.070000", "151501.988000", "151501.992000", "151501.996000", "151501.999000", "151502.002000", "151502.005000", "151502.008000", "151502.011000", "151502.014000", "151502.017000", "151502.020000", "151502.023000", "151502.027000", "151502.030000", "151502.033000", "151502.036000", "151502.039000", "151502.042000", "151502.046000", "151502.050000", "151541.987000", "151541.990000", "151541.993000", "151541.996000", "151542.000000", "151542.004000", "151542.006000", "151542.010000", "151542.013000", "151542.016000", "151542.019000", "151542.022000", "151542.025000", "151542.028000", "151542.031000", "151542.034000", "151542.036000", "151542.039000", "151542.042000", "151542.045000", "151550.400000", "151550.403000", "151550.405000", "151550.408000", "151550.410000"],
      "InstanceCreationTime": ["150841.994000", "150841.998000", "150842.003000", "150842.006000", "150842.008000", "150842.012000", "150842.014000", "150842.017000", "150842.020000", "150842.024000", "150842.027000", "150842.030000", "150842.033000", "150842.036000", "150842.039000", "150842.042000", "150842.045000", "150842.048000", "150842.051000", "150842.054000", "150842.057000", "150842.060000", "150921.987000", "150921.990000", "150921.993000", "150921.996000", "150921.998000", "150922.002000", "150922.005000", "150922.008000", "150922.011000", "150922.014000", "150922.017000", "150922.019000", "150922.022000", "150922.025000", "150922.028000", "150922.030000", "150922.033000", "150922.036000", "150922.039000", "150922.042000", "151001.987000", "151001.990000", "151001.993000", "151001.996000", "151002.000000", "151002.003000", "151002.006000", "151002.008000", "151002.011000", "151002.014000", "151002.017000", "151002.020000", "151002.022000", "151002.025000", "151002.028000", "151002.031000", "151002.034000", "151002.036000", "151002.039000", "151002.042000", "151041.988000", "151041.991000", "151041.994000", "151041.996000", "151042.000000", "151042.003000", "151042.006000", "151042.009000", "151042.012000", "151042.015000", "151042.018000", "151042.021000", "151042.024000", "151042.027000", "151042.030000", "151042.033000", "151042.036000", "151042.039000", "151042.042000", "151042.045000", "151121.987000", "151121.990000", "151121.994000", "151121.997000", "151122.001000", "151122.004000", "151122.007000", "151122.010000", "151122.013000", "151122.016000", "151122.020000", "151122.023000", "151122.026000", "151122.029000", "151122.032000", "151122.035000", "151122.048000", "151122.051000", "151122.054000", "151122.057000", "151201.987000", "151201.990000", "151201.994000", "151201.997000", "151202.002000", "151202.005000", "151202.012000", "151202.015000", "151202.018000", "151202.021000", "151202.024000", "151202.027000", "151202.030000", "151202.033000", "151202.036000", "151202.039000", "151202.042000", "151202.045000", "151202.049000", "151202.052000", "151241.988000", "151241.991000", "151241.994000", "151241.997000", "151242.000000", "151242.003000", "151242.005000", "151242.008000", "151242.011000", "151242.014000", "151242.017000", "151242.020000", "151242.023000", "151242.025000", "151242.028000", "151242.032000", "151242.034000", "151242.037000", "151242.040000", "151242.043000", "151301.988000", "151301.991000", "151301.994000", "151301.997000", "151302.001000", "151302.004000", "151302.007000", "151302.010000", "151302.013000", "151302.015000", "151341.987000", "151341.990000", "151341.993000", "151341.996000", "151342.001000", "151342.004000", "151342.007000", "151342.009000", "151342.013000", "151342.016000", "151342.018000", "151342.021000", "151342.024000", "151342.027000", "151342.030000", "151342.033000", "151342.036000", "151342.039000", "151342.042000", "151342.044000", "151421.987000", "151421.990000", "151422.016000", "151422.019000", "151422.022000", "151422.025000", "151422.028000", "151422.031000", "151422.034000", "151422.037000", "151422.042000", "151422.045000", "151422.049000", "151422.052000", "151422.055000", "151422.058000", "151422.061000", "151422.064000", "151422.067000", "151422.070000", "151501.988000", "151501.992000", "151501.996000", "151501.999000", "151502.002000", "151502.005000", "151502.008000", "151502.011000", "151502.014000", "151502.017000", "151502.020000", "151502.023000", "151502.027000", "151502.030000", "151502.033000", "151502.036000", "151502.039000", "151502.042000", "151502.046000", "151502.050000", "151541.987000", "151541.990000", "151541.993000", "151541.996000", "151542.000000", "151542.004000", "151542.006000", "151542.010000", "151542.013000", "151542.016000", "151542.019000", "151542.022000", "151542.025000", "151542.028000", "151542.031000", "151542.034000", "151542.036000", "151542.039000", "151542.042000", "151542.045000", "151550.400000", "151550.403000", "151550.405000", "151550.408000", "151550.410000"],
      "InstanceNumber": [1, 2, 3, 4, 5, 6, 7, 8, 9, 10, 11, 12, 13, 14, 15, 16, 17, 18, 19, 20, 21, 22, 23, 24, 25, 26, 27, 28, 29, 30, 31, 32, 33, 34, 35, 36, 37, 38, 39, 40, 41, 42, 43, 44, 45, 46, 47, 48, 49, 50, 51, 52, 53, 54, 55, 56, 57, 58, 59, 60, 61, 62, 63, 64, 65, 66, 67, 68, 69, 70, 71, 72, 73, 74, 75, 76, 77, 78, 79, 80, 81, 82, 83, 84, 85, 86, 87, 88, 89, 90, 91, 92, 93, 94, 95, 96, 97, 98, 99, 100, 101, 102, 103, 104, 105, 106, 107, 108, 109, 110, 111, 112, 113, 114, 115, 116, 117, 118, 119, 120, 121, 122, 123, 124, 125, 126, 127, 128, 129, 130, 131, 132, 133, 134, 135, 136, 137, 138, 139, 140, 141, 142, 143, 144, 145, 146, 147, 148, 149, 150, 151, 152, 153, 154, 155, 156, 157, 158, 159, 160, 161, 162, 163, 164, 165, 166, 167, 168, 169, 170, 171, 172, 173, 174, 175, 176, 177, 178, 179, 180, 181, 182, 183, 184, 185, 186, 187, 188, 189, 190, 191, 192, 193, 194, 195, 196, 197, 198, 199, 200, 201, 202, 203, 204, 205, 206, 207, 208, 209, 210, 211, 212, 213, 214, 215, 216, 217, 218, 219, 220, 221, 222, 223, 224, 225, 226, 227, 228, 229, 230, 231, 232, 233, 234, 235, 236, 237],
      "LargestImagePixelValue": [1594, 2360, 2053, 1596, 1785, 2266, 1595, 1812, 1649, 1968, 1542, 1837, 1953, 1799, 1664, 1621, 2335, 1604, 1754, 1735, 1915, 1646, 1979, 1617, 1622, 1809, 1811, 1604, 1703, 1921, 1582, 2307, 1624, 1594, 1742, 2002, 1961, 1581, 1768, 1804, 1822, 1692, 1966, 1634, 1761, 1637, 1916, 1750, 1624, 1785, 1694, 2248, 1593, 1752, 1618, 1722, 2054, 1602, 1666, 1727, 1541, 1799, 2605, 1612, 1633, 1705, 1703, 2202, 1848, 1652, 1645, 2182, 1575, 1753, 2095, 1555, 1756, 2139, 1563, 1680, 1660, 1703, 1630, 2268, 1924, 1898, 1826, 1668, 1656, 1784, 2121, 1879, 1789, 1653, 1799, 2173, 1710, 1697, 1720, 1821, 1910, 1964, 1578, 1696, 1899, 1605, 1639, 2069, 1717, 1635, 1721, 1752, 1700, 2283, 1564, 1624, 1743, 1664, 1982, 2551, 1656, 1569, 1672, 1841, 2039, 1654, 1606, 1783, 1963, 1684, 1659, 1751, 1777, 1766, 1568, 1583, 2070, 1836, 1634, 1691, 2325, 1676, 1698, 1905, 1741, 1660, 2129, 1645, 1600, 1733, 1957, 2051, 1693, 1692, 1686, 1782, 2021, 2290, 1582, 1643, 1611, 1651, 1689, 1732, 2048, 1617, 1949, 1722, 1599, 1743, 1554, 1734, 2228, 1954, 1708, 1601, 1665, 2121, 1893, 1570, 1711, 1643, 1757, 2200, 1906, 1836, 1752, 1711, 1858, 1764, 2171, 1680, 1647, 1727, 1680, 2133, 2103, 1583, 1588, 1757, 2093, 1573, 1715, 1625, 1777, 1726, 1584, 2073, 2145, 1586, 1679, 1745, 1779, 2017, 1860, 1629, 1736, 1951, 1754, 1785, 1559, 1769, 1733, 1666, 2260, 1535, 1999, 1575, 1708, 1704, 1696, 2577, 1558, 1671, 1581, 1644, 1944],
      "WindowCenter": [654.0, 656.0, 654.0, 652.0, 653.0, 654.0, 653.0, 653.0, 652.0, 654.0, 653.0, 653.0, 654.0, 654.0, 653.0, 654.0, 655.0, 653.0, 654.0, 653.0, 654.0, 652.0, 653.0, 652.0, 653.0, 653.0, 654.0, 652.0, 653.0, 654.0, 653.0, 654.0, 652.0, 653.0, 654.0, 655.0, 654.0, 653.0, 654.0, 654.0, 654.0, 654.0, 655.0, 653.0, 653.0, 653.0, 654.0, 653.0, 653.0, 654.0, 653.0, 655.0, 652.0, 653.0, 652.0, 653.0, 655.0, 653.0, 653.0, 654.0, 653.0, 654.0, 656.0, 652.0, 652.0, 653.0, 653.0, 654.0, 653.0, 653.0, 653.0, 655.0, 652.0, 653.0, 655.0, 653.0, 654.0, 654.0, 652.0, 652.0, 653.0, 654.0, 654.0, 656.0, 654.0, 654.0, 653.0, 653.0, 653.0, 654.0, 654.0, 653.0, 652.0, 653.0, 653.0, 654.0, 653.0, 653.0, 654.0, 654.0, 654.0, 654.0, 651.0, 652.0, 653.0, 652.0, 652.0, 655.0, 653.0, 653.0, 652.0, 653.0, 652.0, 655.0, 652.0, 653.0, 653.0, 653.0, 654.0, 655.0, 652.0, 651.0, 653.0, 653.0, 654.0, 652.0, 652.0, 652.0, 653.0, 652.0, 652.0, 653.0, 653.0, 652.0, 652.0, 653.0, 655.0, 654.0, 653.0, 653.0, 655.0, 651.0, 652.0, 654.0, 653.0, 653.0, 654.0, 653.0, 653.0, 653.0, 654.0, 654.0, 653.0, 653.0, 652.0, 652.0, 653.0, 654.0, 651.0, 652.0, 653.0, 652.0, 651.0, 653.0, 653.0, 652.0, 654.0, 654.0, 653.0, 653.0, 653.0, 653.0, 655.0, 652.0, 652.0, 652.0, 653.0, 654.0, 654.0, 651.0, 653.0, 653.0, 654.0, 655.0, 654.0, 653.0, 653.0, 653.0, 653.0, 653.0, 654.0, 653.0, 652.0, 653.0, 653.0, 654.0, 654.0, 651.0, 652.0, 654.0, 655.0, 652.0, 652.0, 653.0, 654.0, 652.0, 652.0, 654.0, 654.0, 652.0, 653.0, 653.0, 653.0, 654.0, 654.0, 653.0, 653.0, 653.0, 653.0, 653.0, 652.0, 653.0, 652.0, 652.0, 654.0, 652.0, 654.0, 652.0, 652.0, 652.0, 652.0, 655.0, 651.0, 652.0, 652.0, 653.0, 654.0],
      "WindowWidth": [1421.0, 1425.0, 1421.0, 1416.0, 1419.0, 1421.0, 1416.0, 1418.0, 1416.0, 1421.0, 1417.0, 1419.0, 1421.0, 1420.0, 1419.0, 1420.0, 1424.0, 1417.0, 1420.0, 1419.0, 1420.0, 1415.0, 1419.0, 1416.0, 1418.0, 1419.0, 1420.0, 1417.0, 1419.0, 1421.0, 1417.0, 1421.0, 1414.0, 1417.0, 1421.0, 1423.0, 1422.0, 1418.0, 1422.0, 1420.0, 1420.0, 1420.0, 1423.0, 1417.0, 1418.0, 1417.0, 1421.0, 1418.0, 1417.0, 1419.0, 1418.0, 1425.0, 1416.0, 1418.0, 1415.0, 1418.0, 1423.0, 1417.0, 1419.0, 1420.0, 1419.0, 1422.0, 1427.0, 1416.0, 1417.0, 1419.0, 1419.0, 1420.0, 1418.0, 1417.0, 1417.0, 1424.0, 1416.0, 1418.0, 1423.0, 1418.0, 1420.0, 1421.0, 1414.0, 1415.0, 1418.0, 1422.0, 1422.0, 1425.0, 1420.0, 1421.0, 1419.0, 1419.0, 1418.0, 1420.0, 1421.0, 1419.0, 1417.0, 1417.0, 1417.0, 1421.0, 1417.0, 1419.0, 1420.0, 1420.0, 1420.0, 1420.0, 1413.0, 1415.0, 1418.0, 1416.0, 1416.0, 1422.0, 1419.0, 1418.0, 1417.0, 1418.0, 1416.0, 1424.0, 1416.0, 1417.0, 1419.0, 1417.0, 1420.0, 1423.0, 1414.0, 1413.0, 1417.0, 1418.0, 1420.0, 1416.0, 1415.0, 1416.0, 1419.0, 1416.0, 1415.0, 1418.0, 1417.0, 1416.0, 1416.0, 1418.0, 1423.0, 1421.0, 1418.0, 1419.0, 1423.0, 1414.0, 1414.0, 1421.0, 1419.0, 1418.0, 1420.0, 1417.0, 1418.0, 1418.0, 1420.0, 1420.0, 1418.0, 1419.0, 1416.0, 1414.0, 1418.0, 1421.0, 1414.0, 1416.0, 1417.0, 1415.0, 1415.0, 1418.0, 1418.0, 1416.0, 1422.0, 1420.0, 1417.0, 1419.0, 1419.0, 1419.0, 1422.0, 1417.0, 1416.0, 1416.0, 1417.0, 1420.0, 1419.0, 1414.0, 1418.0, 1417.0, 1419.0, 1423.0, 1420.0, 1418.0, 1419.0, 1418.0, 1418.0, 1418.0, 1422.0, 1416.0, 1416.0, 1417.0, 1417.0, 1420.0, 1420.0, 1414.0, 1416.0, 1419.0, 1422.0, 1415.0, 1416.0, 1417.0, 1420.0, 1417.0, 1414.0, 1420.0, 1422.0, 1415.0, 1416.0, 1417.0, 1417.0, 1420.0, 1420.0, 1417.0, 1418.0, 1419.0, 1418.0, 1417.0, 1416.0, 1418.0, 1416.0, 1415.0, 1421.0, 1414.0, 1421.0, 1416.0, 1415.0, 1416.0, 1416.0, 1423.0, 1412.0, 1414.0, 1415.0, 1416.0, 1420.0]
    },
    "slices": {}
  }
}