{
  "AcquisitionMatrixPE": 70,
  "AcquisitionNumber": 1,
  "AcquisitionTime": "15:28:38.947500",
  "BandwidthPerPixelPhaseEncode": 38.873,
  "BaseResolution": 70,
  "BodyPartExamined": "HEAD",
  "ConsistencyInfo": "N4_VE11B_LATEST_20150530",
  "ConversionSoftware": "dcm2niix",
  "ConversionSoftwareVersion": "v1.0.20190410  GCC6.3.0",
  "DerivedVendorReportedEchoSpacing": 0.000489996,
  "DeviceSerialNumber": "66088",
  "DwellTime": 2.9e-06,
  "EchoTime": 0.03,
  "EchoTrainLength": 53,
  "EffectiveEchoSpacing": 0.000367497,
  "FlipAngle": 90,
  "ImageOrientationPatientDICOM": [0.99838, -0.0450677, -0.0347173, 0.0278873, 0.919618, -0.391822],
  "ImageType": [
    "ORIGINAL",
    "PRIMARY",
    "M",
    "ND",
    "NORM",
    "MOSAIC"
],
  "ImagingFrequency": 123.191,
  "InPlanePhaseEncodingDirectionDICOM": "COL",
  "InstitutionAddress": "Street_StreetNo_City_District_IR_ZIP",
  "InstitutionName": "NBML",
  "InstitutionalDepartmentName": "Department",
  "MRAcquisitionType": "2D",
  "MagneticFieldStrength": 3,
  "Manufacturer": "Siemens",
  "ManufacturersModelName": "Prisma",
  "Modality": "MR",
  "ParallelReductionFactorInPlane": 2,
  "PartialFourier": 1,
  "PatientPosition": "HFS",
  "PercentPhaseFOV": 100,
  "PhaseEncodingDirection": "j-",
  "PhaseEncodingSteps": 105,
  "PhaseOversampling": 0.5,
  "PhaseResolution": 1,
  "PixelBandwidth": 2465,
  "ProcedureStepDescription": "NBML_Project_P_96169_Ebrahiminiya-Khaliq",
  "ProtocolName": "ep2d_p2_Task_3.5_measurment:237",
  "PulseSequenceDetails": "%SiemensSeq%_ep2d_pace",
  "ReceiveCoilActiveElements": "HC1-7;NC1",
  "ReceiveCoilName": "HeadNeck_64",
  "ReconMatrixPE": 70,
  "RefLinesPE": 24,
  "RepetitionTime": 2,
  "SAR": 0.0886805,
  "ScanOptions": "FS",
  "ScanningSequence": "EP",
  "SequenceName": "_epfid2d1_70",
  "SequenceVariant": "SK_OSP",
  "SeriesDescription": "ep2d_p2_Task_3.5_measurment:237",
  "SeriesNumber": 8,
  "ShimSetting": [2593, -4507, -3205, 608, -6, -96, 29, 30],
  "SliceThickness": 3.5,
  "SliceTiming": [0.99, 0, 1.05, 0.06, 1.1075, 0.1175, 1.165, 0.175, 1.225, 0.235, 1.2825, 0.2925, 1.34, 0.35, 1.3975, 0.4075, 1.4575, 0.4675, 1.515, 0.525, 1.5725, 0.5825, 1.6325, 0.6425, 1.69, 0.7, 1.7475, 0.7575, 1.805, 0.8175, 1.865, 0.875, 1.9225, 0.9325],
  "SoftwareVersions": "syngo_MR_E11",
  "SpacingBetweenSlices": 3.85,
  "StationName": "AWP66088",
  "TaskName": "categorySelectivity",
  "TotalReadoutTime": 0.0253573,
  "TxRefAmp": 220.255,
  "dcmmeta_affine": [
    [-3.5371193885803223, 0.0988006517291069, -0.19090314209461212, 126.05551147460938],
    [0.15966857969760895, 3.2580766677856445, -1.502342939376831, -85.37105560302734],
    [-0.12299860268831253, 1.3881683349609375, 3.53963565826416, -87.49275207519531],
    [0.0, 0.0, 0.0, 1.0]
],
  "dcmmeta_reorient_transform": [
    [0.0, -1.0, 0.0, 69.0],
    [1.0, 0.0, 0.0, 0.0],
    [0.0, 0.0, 1.0, 0.0],
    [0.0, 0.0, 0.0, 1.0]
],
  "dcmmeta_shape": [70, 70, 34, 237],
  "dcmmeta_slice_dim": 2,
  "dcmmeta_version": 0.6,
  "global": {
    "const": {
      "AccessionNumber": "M.BRZ",
      "AcquisitionMatrix": [70, 0, 0, 70],
      "AngioFlag": "N",
      "BitsAllocated": 16,
      "BitsStored": 12,
      "BodyPartExamined": "HEAD",
      "Columns": 420,
      "EchoNumbers": 1,
      "EchoTime": 30.0,
      "EchoTrainLength": 53,
      "FlipAngle": 90.0,
      "HighBit": 11,
      "ImageOrientationPatient": [0.99838049080764, -0.0450677426914, -0.0347173464335, 0.02788728095736, 0.91961843071225, -0.3918216959985],
      "ImagePositionPatient": [-769.15878287508, -681.65766788047, 272.74507060947],
      "ImageType": [
        "ORIGINAL",
        "PRIMARY",
        "M",
        "ND",
        "NORM",
        "MOSAIC"
],
      "ImagedNucleus": "1H",
      "ImagingFrequency": 123.191137,
      "InPlanePhaseEncodingDirection": "COL",
      "MRAcquisitionType": "2D",
      "MagneticFieldStrength": 3.0,
      "Manufacturer": "SIEMENS",
      "ManufacturerModelName": "Prisma",
      "Modality": "MR",
      "NumberOfAverages": 1.0,
      "NumberOfPhaseEncodingSteps": 105,
      "PercentPhaseFieldOfView": 100.0,
      "PercentSampling": 100.0,
      "PerformedProcedureStepStartTime": "144004.422000",
      "PhotometricInterpretation": "MONOCHROME2",
      "PixelBandwidth": 2465.0,
      "PixelRepresentation": 0,
      "PixelSpacing": [3.542857170105, 3.542857170105],
      "ProtocolName": "ep2d_p2_Task_3.5_measurment:237",
      "RepetitionTime": 2000.0,
      "Rows": 420,
      "SAR": 0.0886804680295,
      "SamplesPerPixel": 1,
      "ScanOptions": "FS",
      "ScanningSequence": "EP",
      "SequenceName": "*epfid2d1_70",
      "SequenceVariant": [
        "SK",
        "OSP"
],
      "SeriesDescription": "ep2d_p2_Task_3.5_measurment:237",
      "SeriesNumber": 8,
      "SeriesTime": "152921.989000",
      "SliceLocation": -53.376688573469,
      "SliceThickness": 3.5,
      "SmallestImagePixelValue": 0,
      "SoftwareVersions": "syngo MR E11",
      "SpacingBetweenSlices": 3.8499999498594,
      "SpecificCharacterSet": "ISO_IR 100",
      "StudyID": "1",
      "StudyTime": "144004.272000",
      "TransmitCoilName": "Body",
      "VariableFlipAngleFlag": "N",
      "WindowCenterWidthExplanation": "Algo1",
      "dBdt": 0.0},
    "slices": {}
  },
  "time": {
    "samples": {
      "AcquisitionNumber": [1, 2, 3, 4, 5, 6, 7, 8, 9, 10, 11, 12, 13, 14, 15, 16, 17, 18, 19, 20, 21, 22, 23, 24, 25, 26, 27, 28, 29, 30, 31, 32, 33, 34, 35, 36, 37, 38, 39, 40, 41, 42, 43, 44, 45, 46, 47, 48, 49, 50, 51, 52, 53, 54, 55, 56, 57, 58, 59, 60, 61, 62, 63, 64, 65, 66, 67, 68, 69, 70, 71, 72, 73, 74, 75, 76, 77, 78, 79, 80, 81, 82, 83, 84, 85, 86, 87, 88, 89, 90, 91, 92, 93, 94, 95, 96, 97, 98, 99, 100, 101, 102, 103, 104, 105, 106, 107, 108, 109, 110, 111, 112, 113, 114, 115, 116, 117, 118, 119, 120, 121, 122, 123, 124, 125, 126, 127, 128, 129, 130, 131, 132, 133, 134, 135, 136, 137, 138, 139, 140, 141, 142, 143, 144, 145, 146, 147, 148, 149, 150, 151, 152, 153, 154, 155, 156, 157, 158, 159, 160, 161, 162, 163, 164, 165, 166, 167, 168, 169, 170, 171, 172, 173, 174, 175, 176, 177, 178, 179, 180, 181, 182, 183, 184, 185, 186, 187, 188, 189, 190, 191, 192, 193, 194, 195, 196, 197, 198, 199, 200, 201, 202, 203, 204, 205, 206, 207, 208, 209, 210, 211, 212, 213, 214, 215, 216, 217, 218, 219, 220, 221, 222, 223, 224, 225, 226, 227, 228, 229, 230, 231, 232, 233, 234, 235, 236, 237],
      "AcquisitionTime": ["152838.947500", "152840.947500", "152842.947500", "152844.947500", "152846.947500", "152848.947500", "152850.947500", "152852.947500", "152854.947500", "152856.947500", "152858.947500", "152900.947500", "152902.947500", "152904.947500", "152906.947500", "152908.947500", "152910.947500", "152912.947500", "152914.947500", "152916.947500", "152918.947500", "152920.947500", "152922.947500", "152924.947500", "152926.947500", "152928.947500", "152930.947500", "152932.947500", "152934.947500", "152936.947500", "152938.947500", "152940.947500", "152942.947500", "152944.947500", "152946.947500", "152948.947500", "152950.947500", "152952.947500", "152954.947500", "152956.947500", "152958.947500", "153000.947500", "153002.947500", "153004.947500", "153006.947500", "153008.947500", "153010.947500", "153012.947500", "153014.947500", "153016.947500", "153018.947500", "153020.947500", "153022.947500", "153024.947500", "153026.947500", "153028.947500", "153030.947500", "153032.947500", "153034.947500", "153036.947500", "153038.947500", "153040.947500", "153042.947500", "153044.947500", "153046.947500", "153048.947500", "153050.947500", "153052.947500", "153054.947500", "153056.947500", "153058.947500", "153100.947500", "153102.947500", "153104.947500", "153106.947500", "153108.947500", "153110.947500", "153112.947500", "153114.947500", "153116.947500", "153118.947500", "153120.947500", "153122.947500", "153124.947500", "153126.947500", "153128.947500", "153130.947500", "153132.947500", "153134.947500", "153136.947500", "153138.947500", "153140.947500", "153142.947500", "153144.947500", "153146.947500", "153148.947500", "153150.947500", "153152.947500", "153154.947500", "153156.947500", "153158.947500", "153200.947500", "153202.947500", "153204.947500", "153206.947500", "153208.947500", "153210.947500", "153212.947500", "153214.947500", "153216.947500", "153218.947500", "153220.947500", "153222.947500", "153224.947500", "153226.947500", "153228.947500", "153230.947500", "153232.947500", "153234.947500", "153236.947500", "153238.947500", "153240.947500", "153242.947500", "153244.947500", "153246.947500", "153248.947500", "153250.947500", "153252.947500", "153254.947500", "153256.947500", "153258.947500", "153300.947500", "153302.947500", "153304.947500", "153306.947500", "153308.947500", "153310.947500", "153312.947500", "153314.947500", "153316.947500", "153318.947500", "153320.947500", "153322.947500", "153324.947500", "153326.947500", "153328.947500", "153330.947500", "153332.947500", "153334.947500", "153336.947500", "153338.947500", "153340.947500", "153342.947500", "153344.947500", "153346.947500", "153348.947500", "153350.947500", "153352.947500", "153354.947500", "153356.947500", "153358.947500", "153400.947500", "153402.947500", "153404.947500", "153406.947500", "153408.947500", "153410.947500", "153412.947500", "153414.947500", "153416.947500", "153418.947500", "153420.947500", "153422.947500", "153424.947500", "153426.947500", "153428.947500", "153430.947500", "153432.947500", "153434.947500", "153436.947500", "153438.947500", "153440.947500", "153442.947500", "153444.947500", "153446.947500", "153448.947500", "153450.947500", "153452.947500", "153454.947500", "153456.947500", "153458.947500", "153500.947500", "153502.947500", "153504.947500", "153506.947500", "153508.947500", "153510.947500", "153512.947500", "153514.947500", "153516.947500", "153518.947500", "153520.947500", "153522.947500", "153524.947500", "153526.947500", "153528.947500", "153530.947500", "153532.947500", "153534.947500", "153536.947500", "153538.947500", "153540.947500", "153542.947500", "153544.947500", "153546.947500", "153548.947500", "153550.947500", "153552.947500", "153554.947500", "153556.947500", "153558.947500", "153600.947500", "153602.947500", "153604.947500", "153606.947500", "153608.947500", "153610.947500", "153612.947500", "153614.947500", "153616.947500", "153618.947500", "153620.947500", "153622.947500", "153624.947500", "153626.947500", "153628.947500", "153630.947500"],
      "ContentTime": ["152921.994000", "152921.998000", "152922.002000", "152922.005000", "152922.008000", "152922.011000", "152922.014000", "152922.017000", "152922.020000", "152922.023000", "152922.026000", "152922.029000", "152922.032000", "152922.035000", "152922.038000", "152922.041000", "152922.044000", "152922.047000", "152922.050000", "152922.054000", "152922.057000", "153001.987000", "153001.990000", "153001.994000", "153001.997000", "153002.001000", "153002.004000", "153002.008000", "153002.011000", "153002.014000", "153002.017000", "153002.020000", "153002.023000", "153002.026000", "153002.030000", "153002.033000", "153002.036000", "153002.039000", "153002.043000", "153002.057000", "153002.060000", "153041.987000", "153041.991000", "153041.994000", "153041.997000", "153042.001000", "153042.005000", "153042.008000", "153042.011000", "153042.014000", "153042.017000", "153042.021000", "153042.024000", "153042.027000", "153042.030000", "153042.034000", "153042.037000", "153042.040000", "153042.044000", "153042.047000", "153042.050000", "153121.988000", "153121.992000", "153121.995000", "153121.998000", "153122.002000", "153122.005000", "153122.008000", "153122.011000", "153122.014000", "153122.018000", "153122.021000", "153122.024000", "153122.027000", "153122.030000", "153122.033000", "153122.036000", "153122.039000", "153122.043000", "153122.046000", "153122.049000", "153201.987000", "153201.991000", "153201.994000", "153201.997000", "153202.001000", "153202.004000", "153202.008000", "153202.011000", "153202.014000", "153202.017000", "153202.020000", "153202.024000", "153202.027000", "153202.030000", "153202.033000", "153202.036000", "153202.040000", "153202.044000", "153202.047000", "153202.050000", "153241.987000", "153241.991000", "153241.994000", "153241.997000", "153242.001000", "153242.005000", "153242.008000", "153242.011000", "153242.014000", "153242.018000", "153242.021000", "153242.024000", "153242.027000", "153242.031000", "153242.034000", "153242.037000", "153242.040000", "153242.043000", "153242.047000", "153242.050000", "153301.987000", "153301.991000", "153301.994000", "153301.997000", "153302.002000", "153302.005000", "153302.008000", "153302.011000", "153302.014000", "153302.018000", "153341.988000", "153341.991000", "153341.994000", "153341.997000", "153342.002000", "153342.005000", "153342.008000", "153342.011000", "153342.015000", "153342.018000", "153342.021000", "153342.024000", "153342.027000", "153342.031000", "153342.034000", "153342.037000", "153342.040000", "153342.043000", "153342.046000", "153342.050000", "153421.987000", "153421.990000", "153421.993000", "153421.997000", "153422.001000", "153422.004000", "153422.007000", "153422.011000", "153422.014000", "153422.017000", "153422.020000", "153422.023000", "153422.026000", "153422.029000", "153422.032000", "153422.035000", "153422.038000", "153422.041000", "153422.044000", "153422.048000", "153501.987000", "153501.990000", "153501.993000", "153501.996000", "153502.000000", "153502.004000", "153502.007000", "153502.010000", "153502.013000", "153502.016000", "153502.019000", "153502.022000", "153502.025000", "153502.029000", "153502.032000", "153502.035000", "153502.038000", "153502.041000", "153502.044000", "153502.047000", "153541.987000", "153541.990000", "153541.993000", "153541.996000", "153542.001000", "153542.004000", "153542.007000", "153542.011000", "153542.014000", "153542.017000", "153542.020000", "153542.024000", "153542.027000", "153542.030000", "153542.033000", "153542.037000", "153542.040000", "153542.044000", "153542.047000", "153542.050000", "153621.990000", "153621.993000", "153621.996000", "153622.001000", "153622.004000", "153622.007000", "153622.011000", "153622.014000", "153622.017000", "153622.020000", "153622.024000", "153622.027000", "153622.030000", "153622.033000", "153622.036000", "153622.039000", "153622.042000", "153622.046000", "153622.049000", "153622.052000", "153632.555000", "153632.560000", "153632.567000", "153632.572000", "153632.579000", "153632.582000"],
      "InstanceCreationTime": ["152921.994000", "152921.998000", "152922.002000", "152922.005000", "152922.008000", "152922.011000", "152922.014000", "152922.017000", "152922.020000", "152922.023000", "152922.026000", "152922.029000", "152922.032000", "152922.035000", "152922.038000", "152922.041000", "152922.044000", "152922.047000", "152922.050000", "152922.054000", "152922.057000", "153001.987000", "153001.990000", "153001.994000", "153001.997000", "153002.001000", "153002.004000", "153002.008000", "153002.011000", "153002.014000", "153002.017000", "153002.020000", "153002.023000", "153002.026000", "153002.030000", "153002.033000", "153002.036000", "153002.039000", "153002.043000", "153002.057000", "153002.060000", "153041.987000", "153041.991000", "153041.994000", "153041.997000", "153042.001000", "153042.005000", "153042.008000", "153042.011000", "153042.014000", "153042.017000", "153042.021000", "153042.024000", "153042.027000", "153042.030000", "153042.034000", "153042.037000", "153042.040000", "153042.044000", "153042.047000", "153042.050000", "153121.988000", "153121.992000", "153121.995000", "153121.998000", "153122.002000", "153122.005000", "153122.008000", "153122.011000", "153122.014000", "153122.018000", "153122.021000", "153122.024000", "153122.027000", "153122.030000", "153122.033000", "153122.036000", "153122.039000", "153122.043000", "153122.046000", "153122.049000", "153201.987000", "153201.991000", "153201.994000", "153201.997000", "153202.001000", "153202.004000", "153202.008000", "153202.011000", "153202.014000", "153202.017000", "153202.020000", "153202.024000", "153202.027000", "153202.030000", "153202.033000", "153202.036000", "153202.040000", "153202.044000", "153202.047000", "153202.050000", "153241.987000", "153241.991000", "153241.994000", "153241.997000", "153242.001000", "153242.005000", "153242.008000", "153242.011000", "153242.014000", "153242.018000", "153242.021000", "153242.024000", "153242.027000", "153242.031000", "153242.034000", "153242.037000", "153242.040000", "153242.043000", "153242.047000", "153242.050000", "153301.987000", "153301.991000", "153301.994000", "153301.997000", "153302.002000", "153302.005000", "153302.008000", "153302.011000", "153302.014000", "153302.018000", "153341.988000", "153341.991000", "153341.994000", "153341.997000", "153342.002000", "153342.005000", "153342.008000", "153342.011000", "153342.015000", "153342.018000", "153342.021000", "153342.024000", "153342.027000", "153342.031000", "153342.034000", "153342.037000", "153342.040000", "153342.043000", "153342.046000", "153342.050000", "153421.987000", "153421.990000", "153421.993000", "153421.997000", "153422.001000", "153422.004000", "153422.007000", "153422.011000", "153422.014000", "153422.017000", "153422.020000", "153422.023000", "153422.026000", "153422.029000", "153422.032000", "153422.035000", "153422.038000", "153422.041000", "153422.044000", "153422.048000", "153501.987000", "153501.990000", "153501.993000", "153501.996000", "153502.000000", "153502.004000", "153502.007000", "153502.010000", "153502.013000", "153502.016000", "153502.019000", "153502.022000", "153502.025000", "153502.029000", "153502.032000", "153502.035000", "153502.038000", "153502.041000", "153502.044000", "153502.047000", "153541.987000", "153541.990000", "153541.993000", "153541.996000", "153542.001000", "153542.004000", "153542.007000", "153542.011000", "153542.014000", "153542.017000", "153542.020000", "153542.024000", "153542.027000", "153542.030000", "153542.033000", "153542.037000", "153542.040000", "153542.044000", "153542.047000", "153542.050000", "153621.990000", "153621.993000", "153621.996000", "153622.001000", "153622.004000", "153622.007000", "153622.011000", "153622.014000", "153622.017000", "153622.020000", "153622.024000", "153622.027000", "153622.030000", "153622.033000", "153622.036000", "153622.039000", "153622.042000", "153622.046000", "153622.049000", "153622.052000", "153632.555000", "153632.560000", "153632.567000", "153632.572000", "153632.579000", "153632.582000"],
      "InstanceNumber": [1, 2, 3, 4, 5, 6, 7, 8, 9, 10, 11, 12, 13, 14, 15, 16, 17, 18, 19, 20, 21, 22, 23, 24, 25, 26, 27, 28, 29, 30, 31, 32, 33, 34, 35, 36, 37, 38, 39, 40, 41, 42, 43, 44, 45, 46, 47, 48, 49, 50, 51, 52, 53, 54, 55, 56, 57, 58, 59, 60, 61, 62, 63, 64, 65, 66, 67, 68, 69, 70, 71, 72, 73, 74, 75, 76, 77, 78, 79, 80, 81, 82, 83, 84, 85, 86, 87, 88, 89, 90, 91, 92, 93, 94, 95, 96, 97, 98, 99, 100, 101, 102, 103, 104, 105, 106, 107, 108, 109, 110, 111, 112, 113, 114, 115, 116, 117, 118, 119, 120, 121, 122, 123, 124, 125, 126, 127, 128, 129, 130, 131, 132, 133, 134, 135, 136, 137, 138, 139, 140, 141, 142, 143, 144, 145, 146, 147, 148, 149, 150, 151, 152, 153, 154, 155, 156, 157, 158, 159, 160, 161, 162, 163, 164, 165, 166, 167, 168, 169, 170, 171, 172, 173, 174, 175, 176, 177, 178, 179, 180, 181, 182, 183, 184, 185, 186, 187, 188, 189, 190, 191, 192, 193, 194, 195, 196, 197, 198, 199, 200, 201, 202, 203, 204, 205, 206, 207, 208, 209, 210, 211, 212, 213, 214, 215, 216, 217, 218, 219, 220, 221, 222, 223, 224, 225, 226, 227, 228, 229, 230, 231, 232, 233, 234, 235, 236, 237],
      "LargestImagePixelValue": [1555, 2189, 1731, 1545, 1529, 1516, 2336, 1550, 1548, 1616, 1820, 1936, 1540, 1490, 1624, 2026, 1704, 1617, 2032, 2049, 1837, 1676, 1761, 1621, 1964, 1515, 1661, 1772, 1856, 2218, 1498, 1707, 1614, 1476, 2007, 1686, 1490, 1769, 1884, 1581, 1578, 1781, 1594, 1595, 1584, 1652, 2354, 1512, 1606, 1557, 1727, 1774, 1538, 1986, 1598, 1796, 1607, 1635, 2004, 1753, 1873, 1582, 1674, 1738, 1554, 2132, 1701, 1495, 1611, 1607, 2171, 1709, 1515, 1606, 1593, 2615, 1558, 1624, 1850, 1587, 1522, 1856, 1954, 1602, 1605, 1912, 1885, 1549, 1706, 2428, 1525, 1546, 1728, 1554, 1839, 1557, 1959, 1822, 1590, 1666, 1950, 1619, 1599, 1700, 1710, 2100, 1549, 1499, 1697, 2444, 1542, 1577, 1952, 1575, 1637, 1678, 2079, 1744, 1634, 1598, 1723, 1634, 2014, 1694, 1540, 1523, 1768, 1822, 1901, 1951, 1579, 1696, 1525, 2436, 1542, 1602, 1581, 2119, 1690, 1605, 2128, 1536, 1614, 1982, 1566, 1622, 1484, 2016, 1548, 1619, 1780, 2056, 1503, 1659, 1531, 2049, 1528, 2134, 2290, 1482, 1536, 2216, 1696, 1542, 1926, 1535, 1913, 1690, 1767, 1683, 1731, 2094, 1751, 2240, 1593, 1711, 1468, 2161, 1502, 1552, 1725, 1927, 1782, 1560, 1610, 1877, 1524, 1540, 1990, 1995, 1855, 1708, 2126, 1796, 1589, 1681, 1769, 1553, 1927, 1965, 1652, 1693, 1643, 1756, 1614, 2070, 1922, 1569, 2455, 1572, 1682, 1644, 1711, 1616, 1661, 1908, 1532, 1680, 1910, 1711, 1922, 1880, 2323, 1704, 1626, 1488, 2099, 1543, 1634, 1577, 1546, 1838, 1715, 1862, 1662, 1987, 1920],
      "WindowCenter": [653.0, 654.0, 653.0, 652.0, 652.0, 652.0, 655.0, 652.0, 652.0, 652.0, 653.0, 653.0, 651.0, 651.0, 652.0, 653.0, 652.0, 653.0, 653.0, 654.0, 653.0, 652.0, 653.0, 651.0, 652.0, 650.0, 651.0, 651.0, 652.0, 653.0, 650.0, 652.0, 651.0, 650.0, 653.0, 652.0, 651.0, 652.0, 652.0, 651.0, 651.0, 652.0, 652.0, 652.0, 652.0, 652.0, 654.0, 652.0, 652.0, 652.0, 652.0, 653.0, 653.0, 654.0, 652.0, 652.0, 651.0, 652.0, 653.0, 653.0, 653.0, 652.0, 653.0, 653.0, 651.0, 653.0, 652.0, 651.0, 652.0, 652.0, 653.0, 652.0, 651.0, 651.0, 650.0, 654.0, 650.0, 651.0, 651.0, 651.0, 652.0, 653.0, 652.0, 652.0, 651.0, 652.0, 652.0, 651.0, 651.0, 653.0, 649.0, 649.0, 651.0, 650.0, 651.0, 650.0, 652.0, 652.0, 651.0, 650.0, 652.0, 651.0, 651.0, 652.0, 652.0, 653.0, 651.0, 651.0, 652.0, 653.0, 650.0, 651.0, 651.0, 649.0, 650.0, 651.0, 652.0, 651.0, 650.0, 651.0, 652.0, 651.0, 652.0, 652.0, 652.0, 650.0, 652.0, 652.0, 653.0, 652.0, 651.0, 652.0, 650.0, 654.0, 651.0, 650.0, 651.0, 653.0, 650.0, 650.0, 651.0, 648.0, 650.0, 652.0, 650.0, 651.0, 650.0, 653.0, 651.0, 651.0, 652.0, 653.0, 651.0, 652.0, 650.0, 653.0, 651.0, 655.0, 653.0, 649.0, 651.0, 652.0, 648.0, 648.0, 650.0, 649.0, 650.0, 651.0, 651.0, 651.0, 651.0, 652.0, 651.0, 652.0, 650.0, 650.0, 649.0, 652.0, 650.0, 651.0, 651.0, 651.0, 651.0, 651.0, 650.0, 651.0, 650.0, 651.0, 653.0, 653.0, 652.0, 651.0, 652.0, 651.0, 650.0, 652.0, 652.0, 651.0, 652.0, 653.0, 652.0, 651.0, 651.0, 651.0, 651.0, 652.0, 652.0, 650.0, 653.0, 651.0, 650.0, 651.0, 651.0, 651.0, 651.0, 653.0, 652.0, 653.0, 653.0, 653.0, 653.0, 653.0, 654.0, 651.0, 651.0, 649.0, 653.0, 651.0, 652.0, 651.0, 652.0, 653.0, 652.0, 653.0, 653.0, 655.0, 653.0],
      "WindowWidth": [1419.0, 1422.0, 1417.0, 1415.0, 1415.0, 1415.0, 1424.0, 1414.0, 1414.0, 1414.0, 1418.0, 1419.0, 1414.0, 1413.0, 1414.0, 1417.0, 1415.0, 1417.0, 1418.0, 1419.0, 1419.0, 1416.0, 1417.0, 1412.0, 1413.0, 1409.0, 1412.0, 1413.0, 1415.0, 1419.0, 1409.0, 1415.0, 1412.0, 1410.0, 1418.0, 1415.0, 1412.0, 1415.0, 1416.0, 1412.0, 1413.0, 1416.0, 1415.0, 1416.0, 1415.0, 1416.0, 1421.0, 1414.0, 1414.0, 1414.0, 1415.0, 1418.0, 1416.0, 1421.0, 1415.0, 1415.0, 1413.0, 1415.0, 1419.0, 1417.0, 1417.0, 1414.0, 1416.0, 1417.0, 1412.0, 1419.0, 1415.0, 1412.0, 1416.0, 1414.0, 1419.0, 1414.0, 1412.0, 1412.0, 1411.0, 1420.0, 1410.0, 1411.0, 1411.0, 1412.0, 1414.0, 1416.0, 1416.0, 1414.0, 1414.0, 1415.0, 1415.0, 1412.0, 1411.0, 1417.0, 1408.0, 1408.0, 1413.0, 1408.0, 1411.0, 1409.0, 1414.0, 1414.0, 1412.0, 1411.0, 1416.0, 1413.0, 1412.0, 1414.0, 1414.0, 1418.0, 1413.0, 1412.0, 1415.0, 1419.0, 1411.0, 1412.0, 1413.0, 1408.0, 1411.0, 1413.0, 1416.0, 1412.0, 1411.0, 1413.0, 1414.0, 1413.0, 1415.0, 1414.0, 1414.0, 1410.0, 1416.0, 1415.0, 1416.0, 1416.0, 1412.0, 1414.0, 1411.0, 1419.0, 1412.0, 1409.0, 1411.0, 1417.0, 1411.0, 1410.0, 1413.0, 1405.0, 1410.0, 1415.0, 1410.0, 1411.0, 1410.0, 1417.0, 1411.0, 1413.0, 1414.0, 1417.0, 1413.0, 1415.0, 1411.0, 1418.0, 1412.0, 1422.0, 1419.0, 1408.0, 1412.0, 1415.0, 1404.0, 1403.0, 1409.0, 1405.0, 1409.0, 1412.0, 1412.0, 1413.0, 1411.0, 1415.0, 1412.0, 1416.0, 1410.0, 1411.0, 1408.0, 1416.0, 1411.0, 1412.0, 1412.0, 1413.0, 1413.0, 1412.0, 1411.0, 1413.0, 1411.0, 1412.0, 1417.0, 1417.0, 1415.0, 1411.0, 1415.0, 1412.0, 1409.0, 1414.0, 1415.0, 1413.0, 1414.0, 1417.0, 1414.0, 1413.0, 1412.0, 1412.0, 1413.0, 1417.0, 1415.0, 1409.0, 1418.0, 1411.0, 1409.0, 1411.0, 1412.0, 1413.0, 1412.0, 1416.0, 1414.0, 1418.0, 1419.0, 1418.0, 1417.0, 1418.0, 1421.0, 1413.0, 1413.0, 1408.0, 1418.0, 1413.0, 1414.0, 1414.0, 1414.0, 1419.0, 1416.0, 1417.0, 1419.0, 1423.0, 1419.0]
    },
    "slices": {}
  }
}