{
  "AcquisitionMatrixPE": 70,
  "AcquisitionNumber": 1,
  "AcquisitionTime": "15:46:34.035000",
  "BandwidthPerPixelPhaseEncode": 38.873,
  "BaseResolution": 70,
  "BodyPartExamined": "HEAD",
  "ConsistencyInfo": "N4_VE11B_LATEST_20150530",
  "ConversionSoftware": "dcm2niix",
  "ConversionSoftwareVersion": "v1.0.20190410  GCC6.3.0",
  "DerivedVendorReportedEchoSpacing": 0.000489996,
  "DeviceSerialNumber": "66088",
  "DwellTime": 2.9e-06,
  "EchoTime": 0.03,
  "EchoTrainLength": 53,
  "EffectiveEchoSpacing": 0.000367497,
  "FlipAngle": 90,
  "ImageOrientationPatientDICOM": [0.99838, -0.0450677, -0.0347173, 0.0278873, 0.919618, -0.391822],
  "ImageType": [
    "ORIGINAL",
    "PRIMARY",
    "M",
    "ND",
    "NORM",
    "MOSAIC"
],
  "ImagingFrequency": 123.191,
  "InPlanePhaseEncodingDirectionDICOM": "COL",
  "InstitutionAddress": "Street_StreetNo_City_District_IR_ZIP",
  "InstitutionName": "NBML",
  "InstitutionalDepartmentName": "Department",
  "MRAcquisitionType": "2D",
  "MagneticFieldStrength": 3,
  "Manufacturer": "Siemens",
  "ManufacturersModelName": "Prisma",
  "Modality": "MR",
  "ParallelReductionFactorInPlane": 2,
  "PartialFourier": 1,
  "PatientPosition": "HFS",
  "PercentPhaseFOV": 100,
  "PhaseEncodingDirection": "j-",
  "PhaseEncodingSteps": 105,
  "PhaseOversampling": 0.5,
  "PhaseResolution": 1,
  "PixelBandwidth": 2465,
  "ProcedureStepDescription": "NBML_Project_P_96169_Ebrahiminiya-Khaliq",
  "ProtocolName": "ep2d_p2_Task_3.5_measurment:237",
  "PulseSequenceDetails": "%SiemensSeq%_ep2d_pace",
  "ReceiveCoilActiveElements": "HC1-7;NC1",
  "ReceiveCoilName": "HeadNeck_64",
  "ReconMatrixPE": 70,
  "RefLinesPE": 24,
  "RepetitionTime": 2,
  "SAR": 0.0886805,
  "ScanOptions": "FS",
  "ScanningSequence": "EP",
  "SequenceName": "_epfid2d1_70",
  "SequenceVariant": "SK_OSP",
  "SeriesDescription": "ep2d_p2_Task_3.5_measurment:237",
  "SeriesNumber": 10,
  "ShimSetting": [2593, -4507, -3205, 608, -6, -96, 29, 30],
  "SliceThickness": 3.5,
  "SliceTiming": [0.99, 0, 1.05, 0.06, 1.1075, 0.1175, 1.165, 0.175, 1.225, 0.235, 1.2825, 0.2925, 1.34, 0.35, 1.4, 0.41, 1.4575, 0.4675, 1.515, 0.525, 1.5725, 0.5825, 1.6325, 0.6425, 1.69, 0.7, 1.7475, 0.7575, 1.8075, 0.8175, 1.865, 0.875, 1.9225, 0.9325],
  "SoftwareVersions": "syngo_MR_E11",
  "SpacingBetweenSlices": 3.85,
  "StationName": "AWP66088",
  "TaskName": "categorySelectivity",
  "TotalReadoutTime": 0.0253573,
  "TxRefAmp": 220.255,
  "dcmmeta_affine": [
    [-3.5371193885803223, 0.0988006517291069, -0.19090314209461212, 126.05551147460938],
    [0.15966857969760895, 3.2580766677856445, -1.502342939376831, -85.37105560302734],
    [-0.12299860268831253, 1.3881683349609375, 3.53963565826416, -87.49275207519531],
    [0.0, 0.0, 0.0, 1.0]
],
  "dcmmeta_reorient_transform": [
    [0.0, -1.0, 0.0, 69.0],
    [1.0, 0.0, 0.0, 0.0],
    [0.0, 0.0, 1.0, 0.0],
    [0.0, 0.0, 0.0, 1.0]
],
  "dcmmeta_shape": [70, 70, 34, 237],
  "dcmmeta_slice_dim": 2,
  "dcmmeta_version": 0.6,
  "global": {
    "const": {
      "AccessionNumber": "M.BRZ",
      "AcquisitionMatrix": [70, 0, 0, 70],
      "AngioFlag": "N",
      "BitsAllocated": 16,
      "BitsStored": 12,
      "BodyPartExamined": "HEAD",
      "Columns": 420,
      "EchoNumbers": 1,
      "EchoTime": 30.0,
      "EchoTrainLength": 53,
      "FlipAngle": 90.0,
      "HighBit": 11,
      "ImageOrientationPatient": [0.99838049080764, -0.0450677426914, -0.0347173464335, 0.02788728095736, 0.91961843071225, -0.3918216959985],
      "ImagePositionPatient": [-769.15878287508, -681.65766788047, 272.74507060947],
      "ImageType": [
        "ORIGINAL",
        "PRIMARY",
        "M",
        "ND",
        "NORM",
        "MOSAIC"
],
      "ImagedNucleus": "1H",
      "ImagingFrequency": 123.191137,
      "InPlanePhaseEncodingDirection": "COL",
      "MRAcquisitionType": "2D",
      "MagneticFieldStrength": 3.0,
      "Manufacturer": "SIEMENS",
      "ManufacturerModelName": "Prisma",
      "Modality": "MR",
      "NumberOfAverages": 1.0,
      "NumberOfPhaseEncodingSteps": 105,
      "PercentPhaseFieldOfView": 100.0,
      "PercentSampling": 100.0,
      "PerformedProcedureStepStartTime": "144004.422000",
      "PhotometricInterpretation": "MONOCHROME2",
      "PixelBandwidth": 2465.0,
      "PixelRepresentation": 0,
      "PixelSpacing": [3.542857170105, 3.542857170105],
      "ProtocolName": "ep2d_p2_Task_3.5_measurment:237",
      "RepetitionTime": 2000.0,
      "Rows": 420,
      "SAR": 0.0886804680295,
      "SamplesPerPixel": 1,
      "ScanOptions": "FS",
      "ScanningSequence": "EP",
      "SequenceName": "*epfid2d1_70",
      "SequenceVariant": [
        "SK",
        "OSP"
],
      "SeriesDescription": "ep2d_p2_Task_3.5_measurment:237",
      "SeriesNumber": 10,
      "SeriesTime": "154724.139000",
      "SliceLocation": -53.376688573469,
      "SliceThickness": 3.5,
      "SmallestImagePixelValue": 0,
      "SoftwareVersions": "syngo MR E11",
      "SpacingBetweenSlices": 3.8499999498594,
      "SpecificCharacterSet": "ISO_IR 100",
      "StudyID": "1",
      "StudyTime": "144004.272000",
      "TransmitCoilName": "Body",
      "VariableFlipAngleFlag": "N",
      "WindowCenterWidthExplanation": "Algo1",
      "dBdt": 0.0},
    "slices": {}
  },
  "time": {
    "samples": {
      "AcquisitionNumber": [1, 2, 3, 4, 5, 6, 7, 8, 9, 10, 11, 12, 13, 14, 15, 16, 17, 18, 19, 20, 21, 22, 23, 24, 25, 26, 27, 28, 29, 30, 31, 32, 33, 34, 35, 36, 37, 38, 39, 40, 41, 42, 43, 44, 45, 46, 47, 48, 49, 50, 51, 52, 53, 54, 55, 56, 57, 58, 59, 60, 61, 62, 63, 64, 65, 66, 67, 68, 69, 70, 71, 72, 73, 74, 75, 76, 77, 78, 79, 80, 81, 82, 83, 84, 85, 86, 87, 88, 89, 90, 91, 92, 93, 94, 95, 96, 97, 98, 99, 100, 101, 102, 103, 104, 105, 106, 107, 108, 109, 110, 111, 112, 113, 114, 115, 116, 117, 118, 119, 120, 121, 122, 123, 124, 125, 126, 127, 128, 129, 130, 131, 132, 133, 134, 135, 136, 137, 138, 139, 140, 141, 142, 143, 144, 145, 146, 147, 148, 149, 150, 151, 152, 153, 154, 155, 156, 157, 158, 159, 160, 161, 162, 163, 164, 165, 166, 167, 168, 169, 170, 171, 172, 173, 174, 175, 176, 177, 178, 179, 180, 181, 182, 183, 184, 185, 186, 187, 188, 189, 190, 191, 192, 193, 194, 195, 196, 197, 198, 199, 200, 201, 202, 203, 204, 205, 206, 207, 208, 209, 210, 211, 212, 213, 214, 215, 216, 217, 218, 219, 220, 221, 222, 223, 224, 225, 226, 227, 228, 229, 230, 231, 232, 233, 234, 235, 236, 237],
      "AcquisitionTime": ["154634.035000", "154636.035000", "154638.035000", "154640.035000", "154642.035000", "154644.035000", "154646.035000", "154648.035000", "154650.035000", "154652.035000", "154654.035000", "154656.035000", "154658.035000", "154700.035000", "154702.035000", "154704.035000", "154706.035000", "154708.035000", "154710.035000", "154712.035000", "154714.035000", "154716.035000", "154718.035000", "154720.035000", "154722.035000", "154724.035000", "154726.035000", "154728.035000", "154730.035000", "154732.035000", "154734.035000", "154736.035000", "154738.035000", "154740.035000", "154742.035000", "154744.035000", "154746.035000", "154748.035000", "154750.035000", "154752.035000", "154754.035000", "154756.035000", "154758.035000", "154800.035000", "154802.035000", "154804.035000", "154806.035000", "154808.035000", "154810.035000", "154812.035000", "154814.035000", "154816.035000", "154818.035000", "154820.035000", "154822.035000", "154824.035000", "154826.035000", "154828.035000", "154830.035000", "154832.035000", "154834.035000", "154836.035000", "154838.035000", "154840.035000", "154842.035000", "154844.035000", "154846.035000", "154848.035000", "154850.035000", "154852.035000", "154854.035000", "154856.035000", "154858.035000", "154900.035000", "154902.035000", "154904.035000", "154906.035000", "154908.035000", "154910.035000", "154912.035000", "154914.035000", "154916.035000", "154918.035000", "154920.035000", "154922.035000", "154924.035000", "154926.035000", "154928.035000", "154930.035000", "154932.035000", "154934.035000", "154936.035000", "154938.035000", "154940.035000", "154942.035000", "154944.035000", "154946.035000", "154948.035000", "154950.035000", "154952.035000", "154954.035000", "154956.035000", "154958.035000", "155000.035000", "155002.035000", "155004.035000", "155006.035000", "155008.035000", "155010.035000", "155012.035000", "155014.035000", "155016.035000", "155018.035000", "155020.035000", "155022.035000", "155024.035000", "155026.035000", "155028.035000", "155030.035000", "155032.035000", "155034.035000", "155036.035000", "155038.035000", "155040.035000", "155042.035000", "155044.035000", "155046.035000", "155048.035000", "155050.035000", "155052.035000", "155054.035000", "155056.035000", "155058.035000", "155100.035000", "155102.035000", "155104.035000", "155106.035000", "155108.035000", "155110.035000", "155112.035000", "155114.035000", "155116.035000", "155118.035000", "155120.035000", "155122.035000", "155124.035000", "155126.035000", "155128.035000", "155130.035000", "155132.035000", "155134.035000", "155136.035000", "155138.035000", "155140.035000", "155142.035000", "155144.035000", "155146.035000", "155148.035000", "155150.035000", "155152.035000", "155154.035000", "155156.035000", "155158.035000", "155200.035000", "155202.035000", "155204.035000", "155206.035000", "155208.035000", "155210.035000", "155212.035000", "155214.035000", "155216.035000", "155218.035000", "155220.035000", "155222.035000", "155224.035000", "155226.035000", "155228.035000", "155230.035000", "155232.035000", "155234.035000", "155236.035000", "155238.035000", "155240.035000", "155242.035000", "155244.035000", "155246.035000", "155248.035000", "155250.035000", "155252.035000", "155254.035000", "155256.035000", "155258.035000", "155300.035000", "155302.035000", "155304.035000", "155306.035000", "155308.035000", "155310.035000", "155312.035000", "155314.035000", "155316.035000", "155318.035000", "155320.035000", "155322.035000", "155324.035000", "155326.035000", "155328.035000", "155330.035000", "155332.035000", "155334.035000", "155336.035000", "155338.035000", "155340.035000", "155342.035000", "155344.035000", "155346.035000", "155348.035000", "155350.035000", "155352.035000", "155354.035000", "155356.035000", "155358.035000", "155400.035000", "155402.035000", "155404.035000", "155406.035000", "155408.035000", "155410.035000", "155412.035000", "155414.035000", "155416.035000", "155418.035000", "155420.035000", "155422.035000", "155424.035000", "155426.035000"],
      "ContentTime": ["154724.143000", "154724.146000", "154724.149000", "154724.151000", "154724.153000", "154724.156000", "154724.158000", "154724.161000", "154724.163000", "154724.165000", "154724.168000", "154724.170000", "154724.172000", "154724.175000", "154724.177000", "154724.180000", "154724.182000", "154724.184000", "154724.187000", "154724.189000", "154724.191000", "154724.194000", "154724.196000", "154724.199000", "154724.201000", "154804.138000", "154804.142000", "154804.145000", "154804.148000", "154804.151000", "154804.154000", "154804.157000", "154804.161000", "154804.164000", "154804.167000", "154804.170000", "154804.173000", "154804.176000", "154804.180000", "154804.183000", "154804.186000", "154804.190000", "154804.193000", "154804.196000", "154804.199000", "154844.137000", "154844.140000", "154844.142000", "154844.145000", "154844.147000", "154844.150000", "154844.152000", "154844.155000", "154844.157000", "154844.160000", "154844.163000", "154844.165000", "154844.167000", "154844.170000", "154844.173000", "154844.175000", "154844.178000", "154844.181000", "154844.183000", "154844.185000", "154924.137000", "154924.140000", "154924.142000", "154924.144000", "154924.147000", "154924.149000", "154924.152000", "154924.154000", "154924.156000", "154924.159000", "154924.161000", "154924.163000", "154924.166000", "154924.182000", "154924.185000", "154924.187000", "154924.189000", "154924.192000", "154924.194000", "154924.197000", "155004.138000", "155004.142000", "155004.145000", "155004.148000", "155004.151000", "155004.154000", "155004.157000", "155004.160000", "155004.164000", "155004.167000", "155004.171000", "155004.174000", "155004.177000", "155004.181000", "155004.184000", "155004.187000", "155004.190000", "155004.193000", "155004.196000", "155004.199000", "155044.136000", "155044.139000", "155044.142000", "155044.144000", "155044.146000", "155044.149000", "155044.151000", "155044.153000", "155044.156000", "155044.158000", "155044.161000", "155044.163000", "155044.166000", "155044.168000", "155044.170000", "155044.173000", "155044.175000", "155044.178000", "155044.180000", "155044.182000", "155124.137000", "155124.141000", "155124.144000", "155124.147000", "155124.151000", "155124.154000", "155124.157000", "155124.160000", "155124.163000", "155124.166000", "155124.169000", "155124.172000", "155124.176000", "155124.179000", "155124.182000", "155124.185000", "155124.188000", "155124.192000", "155124.195000", "155124.198000", "155204.138000", "155204.141000", "155204.145000", "155204.148000", "155204.151000", "155204.154000", "155204.157000", "155204.160000", "155204.163000", "155204.167000", "155204.170000", "155204.173000", "155204.177000", "155204.180000", "155204.183000", "155204.186000", "155204.189000", "155204.192000", "155204.195000", "155204.199000", "155244.136000", "155244.139000", "155244.142000", "155244.144000", "155244.147000", "155244.149000", "155244.151000", "155244.154000", "155244.156000", "155244.159000", "155244.161000", "155244.163000", "155244.166000", "155244.168000", "155244.171000", "155244.173000", "155244.175000", "155244.178000", "155244.180000", "155244.183000", "155304.138000", "155304.141000", "155304.145000", "155304.148000", "155304.151000", "155304.154000", "155304.157000", "155304.160000", "155304.163000", "155304.167000", "155344.137000", "155344.140000", "155344.142000", "155344.145000", "155344.147000", "155344.149000", "155344.152000", "155344.154000", "155344.157000", "155344.159000", "155344.161000", "155344.164000", "155344.166000", "155344.169000", "155344.171000", "155344.174000", "155344.176000", "155344.178000", "155344.181000", "155344.183000", "155424.138000", "155424.142000", "155424.145000", "155424.149000", "155424.152000", "155424.155000", "155424.158000", "155424.161000", "155424.164000", "155424.167000", "155424.171000", "155424.174000", "155424.177000", "155424.180000", "155424.183000", "155424.186000", "155424.190000", "155424.193000", "155424.196000", "155424.199000", "155427.345000", "155427.350000"],
      "InstanceCreationTime": ["154724.143000", "154724.146000", "154724.149000", "154724.151000", "154724.153000", "154724.156000", "154724.158000", "154724.161000", "154724.163000", "154724.165000", "154724.168000", "154724.170000", "154724.172000", "154724.175000", "154724.177000", "154724.180000", "154724.182000", "154724.184000", "154724.187000", "154724.189000", "154724.191000", "154724.194000", "154724.196000", "154724.199000", "154724.201000", "154804.138000", "154804.142000", "154804.145000", "154804.148000", "154804.151000", "154804.154000", "154804.157000", "154804.161000", "154804.164000", "154804.167000", "154804.170000", "154804.173000", "154804.176000", "154804.180000", "154804.183000", "154804.186000", "154804.190000", "154804.193000", "154804.196000", "154804.199000", "154844.137000", "154844.140000", "154844.142000", "154844.145000", "154844.147000", "154844.150000", "154844.152000", "154844.155000", "154844.157000", "154844.160000", "154844.163000", "154844.165000", "154844.167000", "154844.170000", "154844.173000", "154844.175000", "154844.178000", "154844.181000", "154844.183000", "154844.185000", "154924.137000", "154924.140000", "154924.142000", "154924.144000", "154924.147000", "154924.149000", "154924.152000", "154924.154000", "154924.156000", "154924.159000", "154924.161000", "154924.163000", "154924.166000", "154924.182000", "154924.185000", "154924.187000", "154924.189000", "154924.192000", "154924.194000", "154924.197000", "155004.138000", "155004.142000", "155004.145000", "155004.148000", "155004.151000", "155004.154000", "155004.157000", "155004.160000", "155004.164000", "155004.167000", "155004.171000", "155004.174000", "155004.177000", "155004.181000", "155004.184000", "155004.187000", "155004.190000", "155004.193000", "155004.196000", "155004.199000", "155044.136000", "155044.139000", "155044.142000", "155044.144000", "155044.146000", "155044.149000", "155044.151000", "155044.153000", "155044.156000", "155044.158000", "155044.161000", "155044.163000", "155044.166000", "155044.168000", "155044.170000", "155044.173000", "155044.175000", "155044.178000", "155044.180000", "155044.182000", "155124.137000", "155124.141000", "155124.144000", "155124.147000", "155124.151000", "155124.154000", "155124.157000", "155124.160000", "155124.163000", "155124.166000", "155124.169000", "155124.172000", "155124.176000", "155124.179000", "155124.182000", "155124.185000", "155124.188000", "155124.192000", "155124.195000", "155124.198000", "155204.138000", "155204.141000", "155204.145000", "155204.148000", "155204.151000", "155204.154000", "155204.157000", "155204.160000", "155204.163000", "155204.167000", "155204.170000", "155204.173000", "155204.177000", "155204.180000", "155204.183000", "155204.186000", "155204.189000", "155204.192000", "155204.195000", "155204.199000", "155244.136000", "155244.139000", "155244.142000", "155244.144000", "155244.147000", "155244.149000", "155244.151000", "155244.154000", "155244.156000", "155244.159000", "155244.161000", "155244.163000", "155244.166000", "155244.168000", "155244.171000", "155244.173000", "155244.175000", "155244.178000", "155244.180000", "155244.183000", "155304.138000", "155304.141000", "155304.145000", "155304.148000", "155304.151000", "155304.154000", "155304.157000", "155304.160000", "155304.163000", "155304.167000", "155344.137000", "155344.140000", "155344.142000", "155344.145000", "155344.147000", "155344.149000", "155344.152000", "155344.154000", "155344.157000", "155344.159000", "155344.161000", "155344.164000", "155344.166000", "155344.169000", "155344.171000", "155344.174000", "155344.176000", "155344.178000", "155344.181000", "155344.183000", "155424.138000", "155424.142000", "155424.145000", "155424.149000", "155424.152000", "155424.155000", "155424.158000", "155424.161000", "155424.164000", "155424.167000", "155424.171000", "155424.174000", "155424.177000", "155424.180000", "155424.183000", "155424.186000", "155424.190000", "155424.193000", "155424.196000", "155424.199000", "155427.345000", "155427.350000"],
      "InstanceNumber": [1, 2, 3, 4, 5, 6, 7, 8, 9, 10, 11, 12, 13, 14, 15, 16, 17, 18, 19, 20, 21, 22, 23, 24, 25, 26, 27, 28, 29, 30, 31, 32, 33, 34, 35, 36, 37, 38, 39, 40, 41, 42, 43, 44, 45, 46, 47, 48, 49, 50, 51, 52, 53, 54, 55, 56, 57, 58, 59, 60, 61, 62, 63, 64, 65, 66, 67, 68, 69, 70, 71, 72, 73, 74, 75, 76, 77, 78, 79, 80, 81, 82, 83, 84, 85, 86, 87, 88, 89, 90, 91, 92, 93, 94, 95, 96, 97, 98, 99, 100, 101, 102, 103, 104, 105, 106, 107, 108, 109, 110, 111, 112, 113, 114, 115, 116, 117, 118, 119, 120, 121, 122, 123, 124, 125, 126, 127, 128, 129, 130, 131, 132, 133, 134, 135, 136, 137, 138, 139, 140, 141, 142, 143, 144, 145, 146, 147, 148, 149, 150, 151, 152, 153, 154, 155, 156, 157, 158, 159, 160, 161, 162, 163, 164, 165, 166, 167, 168, 169, 170, 171, 172, 173, 174, 175, 176, 177, 178, 179, 180, 181, 182, 183, 184, 185, 186, 187, 188, 189, 190, 191, 192, 193, 194, 195, 196, 197, 198, 199, 200, 201, 202, 203, 204, 205, 206, 207, 208, 209, 210, 211, 212, 213, 214, 215, 216, 217, 218, 219, 220, 221, 222, 223, 224, 225, 226, 227, 228, 229, 230, 231, 232, 233, 234, 235, 236, 237],
      "LargestImagePixelValue": [1524, 2288, 1526, 1636, 2190, 1661, 1656, 1596, 1695, 1549, 1635, 1515, 2147, 1555, 1556, 1515, 2030, 1546, 1821, 1580, 1581, 1797, 1536, 1601, 1915, 1526, 1516, 1843, 1504, 1544, 2135, 1528, 1571, 1580, 1581, 1904, 1813, 1581, 1920, 1639, 1800, 1542, 1524, 1952, 1546, 1539, 1533, 2072, 1657, 1552, 1526, 1515, 2306, 1599, 1532, 1737, 1661, 1624, 1691, 1516, 2372, 1511, 1608, 1543, 1657, 1753, 1597, 1537, 1622, 1549, 2160, 1718, 1503, 1907, 1532, 1539, 1687, 1640, 1547, 1527, 1940, 1613, 1553, 1547, 1972, 1627, 1601, 1720, 1577, 1543, 1494, 2194, 1508, 1521, 1648, 2218, 1504, 1608, 1551, 1551, 1531, 2094, 1513, 1713, 1530, 1607, 1650, 1945, 1497, 1537, 1726, 1579, 1527, 2243, 1576, 1650, 1534, 1590, 1565, 1716, 1495, 2378, 1525, 1567, 1544, 1628, 2428, 1583, 1589, 1616, 1684, 2048, 1549, 1544, 1639, 1570, 1596, 1787, 1589, 1900, 1526, 1943, 1616, 1631, 1485, 1710, 1534, 1785, 2008, 1525, 1748, 1606, 1640, 1602, 1559, 1489, 1760, 1605, 1562, 1814, 1505, 1674, 1606, 1773, 1826, 1623, 1530, 2083, 1565, 2026, 1687, 1763, 1485, 1977, 1537, 1493, 1790, 1495, 1663, 1906, 1622, 1534, 1637, 1635, 1490, 1714, 1523, 2042, 1589, 1604, 1488, 1700, 1585, 1857, 1546, 1630, 1715, 1575, 1638, 1641, 1582, 1566, 2520, 1527, 1544, 1532, 1569, 1667, 1502, 1546, 1538, 1626, 1844, 2007, 1643, 1494, 1758, 1642, 1551, 1530, 1645, 1795, 1648, 1497, 1511, 1501, 1562, 1786, 1695, 1557, 1552, 1837, 1980, 2404, 1597, 1519, 1570],
      "WindowCenter": [652.0, 653.0, 651.0, 652.0, 655.0, 652.0, 650.0, 652.0, 653.0, 651.0, 652.0, 652.0, 654.0, 651.0, 651.0, 651.0, 653.0, 651.0, 653.0, 652.0, 651.0, 652.0, 652.0, 652.0, 654.0, 652.0, 651.0, 653.0, 651.0, 651.0, 654.0, 651.0, 652.0, 651.0, 652.0, 654.0, 652.0, 651.0, 651.0, 651.0, 652.0, 651.0, 651.0, 653.0, 651.0, 651.0, 652.0, 654.0, 652.0, 652.0, 652.0, 652.0, 655.0, 651.0, 651.0, 654.0, 653.0, 652.0, 652.0, 651.0, 655.0, 652.0, 652.0, 652.0, 651.0, 652.0, 652.0, 651.0, 651.0, 651.0, 653.0, 652.0, 651.0, 653.0, 651.0, 651.0, 652.0, 652.0, 652.0, 652.0, 653.0, 653.0, 652.0, 652.0, 654.0, 652.0, 651.0, 651.0, 652.0, 652.0, 652.0, 655.0, 652.0, 652.0, 651.0, 654.0, 651.0, 651.0, 651.0, 651.0, 652.0, 654.0, 652.0, 653.0, 651.0, 652.0, 653.0, 654.0, 652.0, 652.0, 653.0, 652.0, 651.0, 655.0, 652.0, 652.0, 651.0, 651.0, 652.0, 651.0, 651.0, 654.0, 651.0, 652.0, 652.0, 652.0, 654.0, 651.0, 651.0, 651.0, 651.0, 653.0, 652.0, 651.0, 651.0, 652.0, 652.0, 653.0, 652.0, 652.0, 651.0, 653.0, 651.0, 651.0, 651.0, 653.0, 652.0, 652.0, 653.0, 651.0, 653.0, 652.0, 652.0, 652.0, 652.0, 651.0, 653.0, 653.0, 651.0, 653.0, 650.0, 651.0, 652.0, 652.0, 652.0, 651.0, 651.0, 653.0, 652.0, 653.0, 651.0, 652.0, 650.0, 653.0, 650.0, 651.0, 651.0, 649.0, 652.0, 652.0, 651.0, 651.0, 652.0, 651.0, 650.0, 651.0, 651.0, 653.0, 651.0, 651.0, 651.0, 652.0, 651.0, 652.0, 651.0, 652.0, 652.0, 651.0, 651.0, 652.0, 652.0, 651.0, 654.0, 650.0, 650.0, 651.0, 651.0, 651.0, 651.0, 652.0, 652.0, 652.0, 652.0, 652.0, 652.0, 651.0, 651.0, 652.0, 651.0, 651.0, 652.0, 652.0, 651.0, 651.0, 652.0, 652.0, 652.0, 653.0, 652.0, 651.0, 652.0, 652.0, 652.0, 652.0, 651.0, 651.0, 651.0],
      "WindowWidth": [1414.0, 1418.0, 1412.0, 1414.0, 1423.0, 1415.0, 1410.0, 1413.0, 1417.0, 1413.0, 1414.0, 1413.0, 1420.0, 1412.0, 1412.0, 1411.0, 1418.0, 1411.0, 1416.0, 1414.0, 1413.0, 1415.0, 1414.0, 1415.0, 1419.0, 1414.0, 1412.0, 1416.0, 1412.0, 1412.0, 1420.0, 1412.0, 1414.0, 1413.0, 1414.0, 1419.0, 1414.0, 1412.0, 1413.0, 1412.0, 1415.0, 1412.0, 1412.0, 1418.0, 1412.0, 1413.0, 1415.0, 1420.0, 1416.0, 1414.0, 1414.0, 1414.0, 1422.0, 1412.0, 1412.0, 1419.0, 1417.0, 1415.0, 1415.0, 1413.0, 1423.0, 1414.0, 1415.0, 1414.0, 1413.0, 1413.0, 1413.0, 1412.0, 1412.0, 1412.0, 1419.0, 1414.0, 1411.0, 1418.0, 1413.0, 1412.0, 1415.0, 1415.0, 1414.0, 1413.0, 1418.0, 1416.0, 1414.0, 1416.0, 1420.0, 1414.0, 1412.0, 1414.0, 1414.0, 1414.0, 1414.0, 1422.0, 1414.0, 1414.0, 1413.0, 1419.0, 1411.0, 1413.0, 1413.0, 1412.0, 1414.0, 1421.0, 1413.0, 1416.0, 1413.0, 1415.0, 1416.0, 1420.0, 1414.0, 1416.0, 1417.0, 1414.0, 1412.0, 1421.0, 1414.0, 1413.0, 1412.0, 1413.0, 1414.0, 1413.0, 1412.0, 1421.0, 1411.0, 1414.0, 1415.0, 1414.0, 1421.0, 1412.0, 1412.0, 1413.0, 1413.0, 1417.0, 1414.0, 1413.0, 1413.0, 1415.0, 1416.0, 1418.0, 1413.0, 1415.0, 1412.0, 1417.0, 1412.0, 1412.0, 1411.0, 1416.0, 1413.0, 1416.0, 1418.0, 1412.0, 1416.0, 1414.0, 1415.0, 1415.0, 1415.0, 1413.0, 1418.0, 1416.0, 1412.0, 1416.0, 1410.0, 1412.0, 1415.0, 1416.0, 1415.0, 1411.0, 1411.0, 1418.0, 1414.0, 1417.0, 1413.0, 1413.0, 1409.0, 1416.0, 1411.0, 1410.0, 1413.0, 1407.0, 1414.0, 1414.0, 1413.0, 1412.0, 1414.0, 1413.0, 1410.0, 1413.0, 1412.0, 1418.0, 1411.0, 1413.0, 1411.0, 1413.0, 1413.0, 1414.0, 1411.0, 1414.0, 1414.0, 1412.0, 1412.0, 1413.0, 1414.0, 1412.0, 1419.0, 1409.0, 1410.0, 1411.0, 1413.0, 1413.0, 1412.0, 1413.0, 1414.0, 1414.0, 1416.0, 1415.0, 1414.0, 1411.0, 1413.0, 1413.0, 1413.0, 1411.0, 1414.0, 1415.0, 1412.0, 1411.0, 1414.0, 1414.0, 1414.0, 1417.0, 1413.0, 1412.0, 1413.0, 1415.0, 1414.0, 1416.0, 1411.0, 1412.0, 1411.0]
    },
    "slices": {}
  }
}