{
  "AcquisitionMatrixPE": 70,
  "AcquisitionNumber": 1,
  "AcquisitionTime": "09:27:49.652500",
  "BandwidthPerPixelPhaseEncode": 38.873,
  "BaseResolution": 70,
  "BodyPartExamined": "HEAD",
  "ConsistencyInfo": "N4_VE11B_LATEST_20150530",
  "ConversionSoftware": "dcm2niix",
  "ConversionSoftwareVersion": "v1.0.20190410  GCC6.3.0",
  "DerivedVendorReportedEchoSpacing": 0.000489996,
  "DeviceSerialNumber": "66088",
  "DwellTime": 2.9e-06,
  "EchoTime": 0.03,
  "EchoTrainLength": 53,
  "EffectiveEchoSpacing": 0.000367497,
  "FlipAngle": 90,
  "ImageOrientationPatientDICOM": [0.999944, -0.0100919, -0.00309521, 0.00872642, 0.955289, -0.295545],
  "ImageType": [
    "ORIGINAL",
    "PRIMARY",
    "M",
    "ND",
    "NORM",
    "MOSAIC"
],
  "ImagingFrequency": 123.191,
  "InPlanePhaseEncodingDirectionDICOM": "COL",
  "InstitutionAddress": "Street_StreetNo_City_District_IR_ZIP",
  "InstitutionName": "Hospital",
  "InstitutionalDepartmentName": "Department",
  "MRAcquisitionType": "2D",
  "MagneticFieldStrength": 3,
  "Manufacturer": "Siemens",
  "ManufacturersModelName": "Prisma",
  "Modality": "MR",
  "ParallelReductionFactorInPlane": 2,
  "PartialFourier": 1,
  "PatientPosition": "HFS",
  "PercentPhaseFOV": 100,
  "PhaseEncodingDirection": "j-",
  "PhaseEncodingSteps": 105,
  "PhaseOversampling": 0.5,
  "PhaseResolution": 1,
  "PixelBandwidth": 2465,
  "ProcedureStepDescription": "NBML_Project_P-96169_Ebrahiminiya-Khaliq",
  "ProtocolName": "ep2d_p2_Task_3.5_measurment:237",
  "PulseSequenceDetails": "%SiemensSeq%_ep2d_pace",
  "ReceiveCoilActiveElements": "HC1-7",
  "ReceiveCoilName": "HeadNeck_64",
  "ReconMatrixPE": 70,
  "RefLinesPE": 24,
  "RepetitionTime": 2,
  "SAR": 0.0858195,
  "ScanOptions": "FS",
  "ScanningSequence": "EP",
  "SequenceName": "_epfid2d1_70",
  "SequenceVariant": "SK_OSP",
  "SeriesDescription": "ep2d_p2_Task_3.5_measurment:237",
  "SeriesNumber": 6,
  "ShimSetting": [2603, -4489, -3258, 374, 35, 68, 14, 21],
  "SliceThickness": 3.5,
  "SliceTiming": [0.99, 0, 1.0475, 0.0575, 1.105, 0.115, 1.165, 0.175, 1.2225, 0.2325, 1.28, 0.29, 1.34, 0.35, 1.3975, 0.4075, 1.455, 0.465, 1.5125, 0.5225, 1.5725, 0.5825, 1.63, 0.64, 1.6875, 0.6975, 1.7475, 0.7575, 1.805, 0.815, 1.8625, 0.8725, 1.92, 0.93],
  "SoftwareVersions": "syngo_MR_E11",
  "SpacingBetweenSlices": 3.85,
  "StationName": "AWP66088",
  "TaskName": "categorySelectivity",
  "TotalReadoutTime": 0.0253573,
  "TxRefAmp": 230.304,
  "dcmmeta_affine": [
    [-3.5426597595214844, 0.030916452407836914, -0.022866854444146156, 122.28917694091797],
    [0.0357542559504509, 3.3844523429870605, -1.1376806497573853, -86.35160064697266],
    [-0.010965904220938683, 1.0470736026763916, 3.6779966354370117, -69.99176788330078],
    [0.0, 0.0, 0.0, 1.0]
],
  "dcmmeta_reorient_transform": [
    [0.0, -1.0, 0.0, 69.0],
    [1.0, 0.0, 0.0, 0.0],
    [0.0, 0.0, 1.0, 0.0],
    [0.0, 0.0, 0.0, 1.0]
],
  "dcmmeta_shape": [70, 70, 34, 237],
  "dcmmeta_slice_dim": 2,
  "dcmmeta_version": 0.6,
  "global": {
    "const": {
      "AcquisitionMatrix": [70, 0, 0, 70],
      "AngioFlag": "N",
      "BitsAllocated": 16,
      "BitsStored": 12,
      "BodyPartExamined": "HEAD",
      "Columns": 420,
      "EchoNumbers": 1,
      "EchoTime": 30.0,
      "EchoTrainLength": 53,
      "FlipAngle": 90.0,
      "HighBit": 11,
      "ImageOrientationPatient": [0.99994428477258, -0.0100919272664, -0.0030952148061, 0.00872641791144, 0.95528897507964, -0.2955449605758],
      "ImagePositionPatient": [-749.79825301008, -733.19778512894, 187.41321818784],
      "ImageType": [
        "ORIGINAL",
        "PRIMARY",
        "M",
        "ND",
        "NORM",
        "MOSAIC"
],
      "ImagedNucleus": "1H",
      "ImagingFrequency": 123.19119,
      "InPlanePhaseEncodingDirection": "COL",
      "MRAcquisitionType": "2D",
      "MagneticFieldStrength": 3.0,
      "Manufacturer": "SIEMENS",
      "ManufacturerModelName": "Prisma",
      "Modality": "MR",
      "NumberOfAverages": 1.0,
      "NumberOfPhaseEncodingSteps": 105,
      "PercentPhaseFieldOfView": 100.0,
      "PercentSampling": 100.0,
      "PerformedProcedureStepStartTime": "084252.910000",
      "PhotometricInterpretation": "MONOCHROME2",
      "PixelBandwidth": 2465.0,
      "PixelRepresentation": 0,
      "PixelSpacing": [3.542857170105, 3.542857170105],
      "ProtocolName": "ep2d_p2_Task_3.5_measurment:237",
      "RepetitionTime": 2000.0,
      "Rows": 420,
      "SAR": 0.08581947552585,
      "SamplesPerPixel": 1,
      "ScanOptions": "FS",
      "ScanningSequence": "EP",
      "SequenceName": "*epfid2d1_70",
      "SequenceVariant": [
        "SK",
        "OSP"
],
      "SeriesDescription": "ep2d_p2_Task_3.5_measurment:237",
      "SeriesNumber": 6,
      "SeriesTime": "092847.461000",
      "SliceLocation": -42.074106472858,
      "SliceThickness": 3.5,
      "SmallestImagePixelValue": 0,
      "SoftwareVersions": "syngo MR E11",
      "SpacingBetweenSlices": 3.8499999490272,
      "SpecificCharacterSet": "ISO_IR 100",
      "StudyID": "1",
      "StudyTime": "084252.759000",
      "TransmitCoilName": "Body",
      "VariableFlipAngleFlag": "N",
      "WindowCenterWidthExplanation": "Algo1",
      "dBdt": 0.0},
    "slices": {}
  },
  "time": {
    "samples": {
      "AcquisitionNumber": [1, 2, 3, 4, 5, 6, 7, 8, 9, 10, 11, 12, 13, 14, 15, 16, 17, 18, 19, 20, 21, 22, 23, 24, 25, 26, 27, 28, 29, 30, 31, 32, 33, 34, 35, 36, 37, 38, 39, 40, 41, 42, 43, 44, 45, 46, 47, 48, 49, 50, 51, 52, 53, 54, 55, 56, 57, 58, 59, 60, 61, 62, 63, 64, 65, 66, 67, 68, 69, 70, 71, 72, 73, 74, 75, 76, 77, 78, 79, 80, 81, 82, 83, 84, 85, 86, 87, 88, 89, 90, 91, 92, 93, 94, 95, 96, 97, 98, 99, 100, 101, 102, 103, 104, 105, 106, 107, 108, 109, 110, 111, 112, 113, 114, 115, 116, 117, 118, 119, 120, 121, 122, 123, 124, 125, 126, 127, 128, 129, 130, 131, 132, 133, 134, 135, 136, 137, 138, 139, 140, 141, 142, 143, 144, 145, 146, 147, 148, 149, 150, 151, 152, 153, 154, 155, 156, 157, 158, 159, 160, 161, 162, 163, 164, 165, 166, 167, 168, 169, 170, 171, 172, 173, 174, 175, 176, 177, 178, 179, 180, 181, 182, 183, 184, 185, 186, 187, 188, 189, 190, 191, 192, 193, 194, 195, 196, 197, 198, 199, 200, 201, 202, 203, 204, 205, 206, 207, 208, 209, 210, 211, 212, 213, 214, 215, 216, 217, 218, 219, 220, 221, 222, 223, 224, 225, 226, 227, 228, 229, 230, 231, 232, 233, 234, 235, 236, 237],
      "AcquisitionTime": ["092749.652500", "092751.652500", "092753.652500", "092755.652500", "092757.652500", "092759.652500", "092801.652500", "092803.652500", "092805.652500", "092807.652500", "092809.652500", "092811.652500", "092813.652500", "092815.652500", "092817.652500", "092819.652500", "092821.652500", "092823.652500", "092825.652500", "092827.652500", "092829.652500", "092831.652500", "092833.652500", "092835.652500", "092837.652500", "092839.652500", "092841.652500", "092843.652500", "092845.652500", "092847.652500", "092849.652500", "092851.652500", "092853.652500", "092855.652500", "092857.652500", "092859.652500", "092901.652500", "092903.652500", "092905.652500", "092907.652500", "092909.652500", "092911.652500", "092913.652500", "092915.652500", "092917.652500", "092919.652500", "092921.652500", "092923.652500", "092925.652500", "092927.652500", "092929.652500", "092931.652500", "092933.652500", "092935.652500", "092937.652500", "092939.652500", "092941.652500", "092943.652500", "092945.652500", "092947.652500", "092949.652500", "092951.652500", "092953.652500", "092955.652500", "092957.652500", "092959.652500", "093001.652500", "093003.652500", "093005.652500", "093007.652500", "093009.652500", "093011.652500", "093013.652500", "093015.652500", "093017.652500", "093019.652500", "093021.652500", "093023.652500", "093025.652500", "093027.652500", "093029.652500", "093031.652500", "093033.652500", "093035.652500", "093037.652500", "093039.652500", "093041.652500", "093043.652500", "093045.652500", "093047.652500", "093049.652500", "093051.652500", "093053.652500", "093055.652500", "093057.652500", "093059.652500", "093101.652500", "093103.652500", "093105.652500", "093107.652500", "093109.652500", "093111.652500", "093113.652500", "093115.652500", "093117.652500", "093119.652500", "093121.652500", "093123.652500", "093125.652500", "093127.652500", "093129.652500", "093131.652500", "093133.652500", "093135.652500", "093137.652500", "093139.652500", "093141.652500", "093143.652500", "093145.652500", "093147.652500", "093149.652500", "093151.652500", "093153.652500", "093155.652500", "093157.652500", "093159.652500", "093201.652500", "093203.652500", "093205.652500", "093207.652500", "093209.652500", "093211.652500", "093213.652500", "093215.652500", "093217.652500", "093219.652500", "093221.652500", "093223.652500", "093225.652500", "093227.652500", "093229.652500", "093231.652500", "093233.652500", "093235.652500", "093237.652500", "093239.652500", "093241.652500", "093243.652500", "093245.652500", "093247.652500", "093249.652500", "093251.652500", "093253.652500", "093255.652500", "093257.652500", "093259.652500", "093301.652500", "093303.652500", "093305.652500", "093307.652500", "093309.652500", "093311.652500", "093313.652500", "093315.652500", "093317.652500", "093319.652500", "093321.652500", "093323.652500", "093325.652500", "093327.652500", "093329.652500", "093331.652500", "093333.652500", "093335.652500", "093337.652500", "093339.652500", "093341.652500", "093343.652500", "093345.652500", "093347.652500", "093349.652500", "093351.652500", "093353.652500", "093355.652500", "093357.652500", "093359.652500", "093401.652500", "093403.652500", "093405.652500", "093407.652500", "093409.652500", "093411.652500", "093413.652500", "093415.652500", "093417.652500", "093419.652500", "093421.652500", "093423.652500", "093425.652500", "093427.652500", "093429.652500", "093431.652500", "093433.652500", "093435.652500", "093437.652500", "093439.652500", "093441.652500", "093443.652500", "093445.652500", "093447.652500", "093449.652500", "093451.652500", "093453.652500", "093455.652500", "093457.652500", "093459.652500", "093501.652500", "093503.652500", "093505.652500", "093507.652500", "093509.652500", "093511.652500", "093513.652500", "093515.652500", "093517.652500", "093519.652500", "093521.652500", "093523.652500", "093525.652500", "093527.652500", "093529.652500", "093531.652500", "093533.652500", "093535.652500", "093537.652500", "093539.652500", "093541.652500"],
      "ContentTime": ["092847.465000", "092847.468000", "092847.471000", "092847.473000", "092847.476000", "092847.478000", "092847.480000", "092847.483000", "092847.485000", "092847.488000", "092847.490000", "092847.492000", "092847.495000", "092847.497000", "092847.499000", "092847.502000", "092847.508000", "092847.517000", "092847.519000", "092847.522000", "092847.524000", "092847.526000", "092847.529000", "092847.531000", "092847.533000", "092847.536000", "092847.538000", "092847.540000", "092847.549000", "092927.439000", "092927.441000", "092927.444000", "092927.446000", "092927.448000", "092927.451000", "092927.453000", "092927.455000", "092927.458000", "092927.460000", "092927.463000", "092927.465000", "092927.467000", "092927.477000", "092927.480000", "092927.490000", "092927.493000", "092927.495000", "092927.497000", "092927.500000", "093007.438000", "093007.441000", "093007.443000", "093007.446000", "093007.448000", "093007.451000", "093007.454000", "093007.456000", "093007.459000", "093007.461000", "093007.464000", "093007.466000", "093007.469000", "093007.472000", "093007.474000", "093007.477000", "093007.479000", "093007.482000", "093007.484000", "093007.487000", "093047.438000", "093047.440000", "093047.443000", "093047.445000", "093047.448000", "093047.451000", "093047.453000", "093047.456000", "093047.458000", "093047.461000", "093047.463000", "093047.466000", "093047.469000", "093047.471000", "093047.474000", "093047.476000", "093047.479000", "093047.482000", "093047.484000", "093047.487000", "093127.439000", "093127.442000", "093127.444000", "093127.447000", "093127.449000", "093127.452000", "093127.454000", "093127.457000", "093127.460000", "093127.462000", "093127.465000", "093127.467000", "093127.470000", "093127.472000", "093127.475000", "093127.477000", "093127.480000", "093127.483000", "093127.485000", "093127.488000", "093207.439000", "093207.441000", "093207.444000", "093207.446000", "093207.449000", "093207.452000", "093207.454000", "093207.457000", "093207.460000", "093207.462000", "093207.465000", "093207.467000", "093207.470000", "093207.472000", "093207.475000", "093207.478000", "093207.480000", "093207.483000", "093207.485000", "093207.488000", "093247.438000", "093247.440000", "093247.443000", "093247.445000", "093247.454000", "093247.457000", "093247.459000", "093247.462000", "093247.464000", "093247.467000", "093247.470000", "093247.472000", "093247.475000", "093247.477000", "093247.480000", "093247.482000", "093247.485000", "093247.487000", "093247.490000", "093247.493000", "093327.439000", "093327.443000", "093327.446000", "093327.448000", "093327.451000", "093327.453000", "093327.456000", "093327.458000", "093327.461000", "093327.464000", "093327.466000", "093327.469000", "093327.471000", "093327.474000", "093327.477000", "093327.479000", "093327.482000", "093327.484000", "093327.487000", "093327.489000", "093347.439000", "093347.441000", "093347.444000", "093347.446000", "093347.449000", "093347.451000", "093347.453000", "093347.456000", "093347.458000", "093347.461000", "093427.438000", "093427.441000", "093427.444000", "093427.446000", "093427.449000", "093427.451000", "093427.454000", "093427.457000", "093427.459000", "093427.463000", "093427.466000", "093427.469000", "093427.471000", "093427.474000", "093427.476000", "093427.479000", "093427.481000", "093427.484000", "093427.487000", "093427.489000", "093507.442000", "093507.445000", "093507.449000", "093507.453000", "093507.456000", "093507.460000", "093507.464000", "093507.467000", "093507.471000", "093507.484000", "093507.487000", "093507.491000", "093507.494000", "093507.497000", "093507.500000", "093507.504000", "093507.507000", "093507.510000", "093507.514000", "093507.518000", "093543.334000", "093543.337000", "093543.340000", "093543.343000", "093543.345000", "093543.348000", "093543.351000", "093543.354000", "093543.356000", "093543.360000", "093543.363000", "093543.374000", "093543.380000", "093543.385000", "093543.396000", "093543.399000", "093543.402000", "093543.405000"],
      "InstanceCreationTime": ["092847.465000", "092847.468000", "092847.471000", "092847.473000", "092847.476000", "092847.478000", "092847.480000", "092847.483000", "092847.485000", "092847.488000", "092847.490000", "092847.492000", "092847.495000", "092847.497000", "092847.499000", "092847.502000", "092847.508000", "092847.517000", "092847.519000", "092847.522000", "092847.524000", "092847.526000", "092847.529000", "092847.531000", "092847.533000", "092847.536000", "092847.538000", "092847.540000", "092847.549000", "092927.439000", "092927.441000", "092927.444000", "092927.446000", "092927.448000", "092927.451000", "092927.453000", "092927.455000", "092927.458000", "092927.460000", "092927.463000", "092927.465000", "092927.467000", "092927.477000", "092927.480000", "092927.490000", "092927.493000", "092927.495000", "092927.497000", "092927.500000", "093007.438000", "093007.441000", "093007.443000", "093007.446000", "093007.448000", "093007.451000", "093007.454000", "093007.456000", "093007.459000", "093007.461000", "093007.464000", "093007.466000", "093007.469000", "093007.472000", "093007.474000", "093007.477000", "093007.479000", "093007.482000", "093007.484000", "093007.487000", "093047.438000", "093047.440000", "093047.443000", "093047.445000", "093047.448000", "093047.451000", "093047.453000", "093047.456000", "093047.458000", "093047.461000", "093047.463000", "093047.466000", "093047.469000", "093047.471000", "093047.474000", "093047.476000", "093047.479000", "093047.482000", "093047.484000", "093047.487000", "093127.439000", "093127.442000", "093127.444000", "093127.447000", "093127.449000", "093127.452000", "093127.454000", "093127.457000", "093127.460000", "093127.462000", "093127.465000", "093127.467000", "093127.470000", "093127.472000", "093127.475000", "093127.477000", "093127.480000", "093127.483000", "093127.485000", "093127.488000", "093207.439000", "093207.441000", "093207.444000", "093207.446000", "093207.449000", "093207.452000", "093207.454000", "093207.457000", "093207.460000", "093207.462000", "093207.465000", "093207.467000", "093207.470000", "093207.472000", "093207.475000", "093207.478000", "093207.480000", "093207.483000", "093207.485000", "093207.488000", "093247.438000", "093247.440000", "093247.443000", "093247.445000", "093247.454000", "093247.457000", "093247.459000", "093247.462000", "093247.464000", "093247.467000", "093247.470000", "093247.472000", "093247.475000", "093247.477000", "093247.480000", "093247.482000", "093247.485000", "093247.487000", "093247.490000", "093247.493000", "093327.439000", "093327.443000", "093327.446000", "093327.448000", "093327.451000", "093327.453000", "093327.456000", "093327.458000", "093327.461000", "093327.464000", "093327.466000", "093327.469000", "093327.471000", "093327.474000", "093327.477000", "093327.479000", "093327.482000", "093327.484000", "093327.487000", "093327.489000", "093347.439000", "093347.441000", "093347.444000", "093347.446000", "093347.449000", "093347.451000", "093347.453000", "093347.456000", "093347.458000", "093347.461000", "093427.438000", "093427.441000", "093427.444000", "093427.446000", "093427.449000", "093427.451000", "093427.454000", "093427.457000", "093427.459000", "093427.463000", "093427.466000", "093427.469000", "093427.471000", "093427.474000", "093427.476000", "093427.479000", "093427.481000", "093427.484000", "093427.487000", "093427.489000", "093507.442000", "093507.445000", "093507.449000", "093507.453000", "093507.456000", "093507.460000", "093507.464000", "093507.467000", "093507.471000", "093507.484000", "093507.487000", "093507.491000", "093507.494000", "093507.497000", "093507.500000", "093507.504000", "093507.507000", "093507.510000", "093507.514000", "093507.518000", "093543.334000", "093543.337000", "093543.340000", "093543.343000", "093543.345000", "093543.348000", "093543.351000", "093543.354000", "093543.356000", "093543.360000", "093543.363000", "093543.374000", "093543.380000", "093543.385000", "093543.396000", "093543.399000", "093543.402000", "093543.405000"],
      "InstanceNumber": [1, 2, 3, 4, 5, 6, 7, 8, 9, 10, 11, 12, 13, 14, 15, 16, 17, 18, 19, 20, 21, 22, 23, 24, 25, 26, 27, 28, 29, 30, 31, 32, 33, 34, 35, 36, 37, 38, 39, 40, 41, 42, 43, 44, 45, 46, 47, 48, 49, 50, 51, 52, 53, 54, 55, 56, 57, 58, 59, 60, 61, 62, 63, 64, 65, 66, 67, 68, 69, 70, 71, 72, 73, 74, 75, 76, 77, 78, 79, 80, 81, 82, 83, 84, 85, 86, 87, 88, 89, 90, 91, 92, 93, 94, 95, 96, 97, 98, 99, 100, 101, 102, 103, 104, 105, 106, 107, 108, 109, 110, 111, 112, 113, 114, 115, 116, 117, 118, 119, 120, 121, 122, 123, 124, 125, 126, 127, 128, 129, 130, 131, 132, 133, 134, 135, 136, 137, 138, 139, 140, 141, 142, 143, 144, 145, 146, 147, 148, 149, 150, 151, 152, 153, 154, 155, 156, 157, 158, 159, 160, 161, 162, 163, 164, 165, 166, 167, 168, 169, 170, 171, 172, 173, 174, 175, 176, 177, 178, 179, 180, 181, 182, 183, 184, 185, 186, 187, 188, 189, 190, 191, 192, 193, 194, 195, 196, 197, 198, 199, 200, 201, 202, 203, 204, 205, 206, 207, 208, 209, 210, 211, 212, 213, 214, 215, 216, 217, 218, 219, 220, 221, 222, 223, 224, 225, 226, 227, 228, 229, 230, 231, 232, 233, 234, 235, 236, 237],
      "LargestImagePixelValue": [1881, 1838, 2007, 1844, 1935, 1823, 1817, 1815, 2009, 1819, 1821, 1819, 1824, 1818, 1818, 1817, 1976, 1824, 1814, 1897, 1808, 1809, 2008, 1814, 1811, 2008, 1818, 1898, 1802, 1811, 1876, 1820, 1810, 1812, 1884, 1814, 1813, 1809, 1956, 1808, 1813, 1900, 1811, 1822, 1957, 1821, 1825, 2021, 1826, 1825, 1994, 1823, 1862, 1823, 1831, 1819, 1826, 1827, 1822, 1835, 1827, 1854, 1836, 1823, 1826, 1831, 1823, 1835, 1832, 1823, 1858, 1824, 1831, 1812, 1836, 1984, 1838, 1823, 1830, 1816, 1836, 1848, 1836, 1840, 1985, 1837, 1839, 1834, 1838, 1968, 1832, 1844, 1955, 1838, 1849, 1840, 1885, 1845, 1848, 1840, 1834, 1925, 1841, 1837, 1833, 1827, 1941, 1839, 1835, 1832, 1835, 1889, 1915, 1828, 1955, 1837, 1870, 1968, 1830, 1870, 1848, 1838, 1875, 1839, 1827, 1844, 1836, 1850, 1840, 1842, 1835, 1829, 1839, 1949, 1828, 1839, 2007, 1837, 1835, 1885, 1833, 1830, 1839, 1829, 1837, 1847, 1843, 1852, 1849, 1852, 1849, 1856, 1853, 1850, 1865, 2062, 1856, 1903, 1859, 1832, 1840, 1864, 1830, 1844, 2130, 1858, 1825, 1921, 1832, 1849, 1846, 1832, 1829, 1829, 1838, 2031, 1847, 1895, 1824, 1863, 2056, 1842, 2336, 1832, 1825, 1908, 1828, 1857, 1830, 1821, 2093, 1829, 1841, 1887, 1830, 1824, 1904, 1836, 1841, 1849, 1840, 1847, 1855, 1859, 1855, 1851, 1839, 1840, 1866, 1848, 1845, 1945, 1852, 1846, 1938, 1837, 1838, 1893, 1851, 1827, 1842, 1828, 1837, 1841, 1829, 1878, 1862, 1844, 1845, 1927, 1849, 1840, 1837, 1964, 1848, 1839, 1991],
      "WindowCenter": [700.0, 700.0, 700.0, 699.0, 699.0, 697.0, 697.0, 696.0, 696.0, 696.0, 695.0, 696.0, 696.0, 697.0, 697.0, 697.0, 698.0, 697.0, 696.0, 697.0, 696.0, 697.0, 697.0, 697.0, 697.0, 697.0, 696.0, 696.0, 696.0, 696.0, 697.0, 696.0, 696.0, 696.0, 696.0, 697.0, 697.0, 696.0, 696.0, 696.0, 697.0, 696.0, 696.0, 697.0, 697.0, 697.0, 695.0, 697.0, 696.0, 696.0, 696.0, 696.0, 696.0, 696.0, 696.0, 696.0, 696.0, 696.0, 696.0, 697.0, 697.0, 696.0, 696.0, 697.0, 696.0, 696.0, 696.0, 696.0, 696.0, 696.0, 696.0, 695.0, 697.0, 697.0, 697.0, 697.0, 696.0, 696.0, 695.0, 695.0, 696.0, 696.0, 696.0, 696.0, 696.0, 697.0, 696.0, 697.0, 697.0, 697.0, 697.0, 696.0, 696.0, 697.0, 696.0, 696.0, 696.0, 697.0, 697.0, 696.0, 696.0, 696.0, 696.0, 696.0, 695.0, 696.0, 697.0, 697.0, 696.0, 696.0, 696.0, 696.0, 696.0, 697.0, 698.0, 699.0, 697.0, 697.0, 696.0, 696.0, 696.0, 696.0, 697.0, 697.0, 696.0, 696.0, 695.0, 696.0, 697.0, 697.0, 697.0, 697.0, 697.0, 697.0, 696.0, 697.0, 696.0, 696.0, 696.0, 697.0, 697.0, 697.0, 696.0, 697.0, 696.0, 696.0, 696.0, 696.0, 697.0, 696.0, 696.0, 696.0, 697.0, 698.0, 697.0, 698.0, 697.0, 696.0, 696.0, 695.0, 696.0, 696.0, 696.0, 696.0, 696.0, 695.0, 695.0, 696.0, 696.0, 696.0, 696.0, 696.0, 696.0, 698.0, 697.0, 696.0, 697.0, 696.0, 695.0, 697.0, 696.0, 695.0, 695.0, 693.0, 696.0, 697.0, 697.0, 696.0, 697.0, 697.0, 698.0, 696.0, 697.0, 696.0, 696.0, 696.0, 696.0, 696.0, 695.0, 696.0, 696.0, 696.0, 696.0, 696.0, 696.0, 697.0, 697.0, 697.0, 697.0, 697.0, 697.0, 697.0, 697.0, 696.0, 696.0, 696.0, 696.0, 696.0, 696.0, 695.0, 696.0, 696.0, 696.0, 697.0, 697.0, 697.0, 697.0, 696.0, 697.0, 697.0, 697.0, 697.0, 698.0, 698.0, 698.0, 697.0, 697.0],
      "WindowWidth": [1573.0, 1571.0, 1571.0, 1568.0, 1567.0, 1562.0, 1561.0, 1558.0, 1558.0, 1556.0, 1556.0, 1558.0, 1559.0, 1560.0, 1561.0, 1561.0, 1565.0, 1561.0, 1560.0, 1562.0, 1560.0, 1561.0, 1561.0, 1560.0, 1560.0, 1563.0, 1558.0, 1559.0, 1558.0, 1559.0, 1562.0, 1561.0, 1559.0, 1558.0, 1557.0, 1560.0, 1560.0, 1558.0, 1559.0, 1557.0, 1559.0, 1558.0, 1558.0, 1561.0, 1562.0, 1560.0, 1557.0, 1560.0, 1559.0, 1558.0, 1560.0, 1559.0, 1558.0, 1558.0, 1558.0, 1557.0, 1558.0, 1558.0, 1558.0, 1562.0, 1560.0, 1560.0, 1560.0, 1561.0, 1560.0, 1559.0, 1558.0, 1558.0, 1559.0, 1559.0, 1559.0, 1557.0, 1560.0, 1560.0, 1561.0, 1562.0, 1558.0, 1556.0, 1554.0, 1556.0, 1557.0, 1557.0, 1559.0, 1559.0, 1561.0, 1560.0, 1558.0, 1562.0, 1561.0, 1562.0, 1561.0, 1558.0, 1560.0, 1560.0, 1559.0, 1557.0, 1559.0, 1560.0, 1560.0, 1559.0, 1558.0, 1559.0, 1558.0, 1558.0, 1556.0, 1557.0, 1561.0, 1560.0, 1558.0, 1559.0, 1559.0, 1558.0, 1559.0, 1561.0, 1565.0, 1566.0, 1562.0, 1561.0, 1557.0, 1559.0, 1559.0, 1559.0, 1561.0, 1562.0, 1558.0, 1558.0, 1556.0, 1559.0, 1561.0, 1561.0, 1560.0, 1561.0, 1561.0, 1560.0, 1558.0, 1559.0, 1559.0, 1559.0, 1558.0, 1560.0, 1559.0, 1559.0, 1559.0, 1561.0, 1559.0, 1559.0, 1558.0, 1557.0, 1559.0, 1559.0, 1559.0, 1559.0, 1562.0, 1564.0, 1561.0, 1564.0, 1561.0, 1559.0, 1557.0, 1556.0, 1556.0, 1557.0, 1557.0, 1557.0, 1558.0, 1555.0, 1556.0, 1557.0, 1556.0, 1558.0, 1558.0, 1559.0, 1559.0, 1563.0, 1561.0, 1560.0, 1561.0, 1559.0, 1556.0, 1559.0, 1559.0, 1555.0, 1555.0, 1549.0, 1556.0, 1563.0, 1562.0, 1560.0, 1560.0, 1561.0, 1563.0, 1559.0, 1560.0, 1559.0, 1559.0, 1557.0, 1558.0, 1557.0, 1556.0, 1558.0, 1558.0, 1558.0, 1558.0, 1558.0, 1557.0, 1562.0, 1561.0, 1560.0, 1560.0, 1560.0, 1560.0, 1562.0, 1560.0, 1558.0, 1559.0, 1559.0, 1559.0, 1557.0, 1557.0, 1556.0, 1557.0, 1558.0, 1558.0, 1560.0, 1560.0, 1561.0, 1562.0, 1559.0, 1561.0, 1561.0, 1560.0, 1561.0, 1564.0, 1566.0, 1564.0, 1561.0, 1561.0]
    },
    "slices": {}
  }
}