{
  "AcquisitionMatrixPE": 70,
  "AcquisitionNumber": 1,
  "AcquisitionTime": "09:08:10.127500",
  "BandwidthPerPixelPhaseEncode": 38.873,
  "BaseResolution": 70,
  "BodyPartExamined": "HEAD",
  "ConsistencyInfo": "N4_VE11B_LATEST_20150530",
  "ConversionSoftware": "dcm2niix",
  "ConversionSoftwareVersion": "v1.0.20190410  GCC6.3.0",
  "DerivedVendorReportedEchoSpacing": 0.000489996,
  "DeviceSerialNumber": "66088",
  "DwellTime": 2.9e-06,
  "EchoTime": 0.03,
  "EchoTrainLength": 53,
  "EffectiveEchoSpacing": 0.000367497,
  "FlipAngle": 90,
  "ImageOrientationPatientDICOM": [0.999944, -0.0100919, -0.00309521, 0.00872642, 0.955289, -0.295545],
  "ImageType": [
    "ORIGINAL",
    "PRIMARY",
    "M",
    "ND",
    "NORM",
    "MOSAIC"
],
  "ImagingFrequency": 123.191,
  "InPlanePhaseEncodingDirectionDICOM": "COL",
  "InstitutionAddress": "Street_StreetNo_City_District_IR_ZIP",
  "InstitutionName": "Hospital",
  "InstitutionalDepartmentName": "Department",
  "MRAcquisitionType": "2D",
  "MagneticFieldStrength": 3,
  "Manufacturer": "Siemens",
  "ManufacturersModelName": "Prisma",
  "Modality": "MR",
  "ParallelReductionFactorInPlane": 2,
  "PartialFourier": 1,
  "PatientPosition": "HFS",
  "PercentPhaseFOV": 100,
  "PhaseEncodingDirection": "j-",
  "PhaseEncodingSteps": 105,
  "PhaseOversampling": 0.5,
  "PhaseResolution": 1,
  "PixelBandwidth": 2465,
  "ProcedureStepDescription": "NBML_Project_P-96169_Ebrahiminiya-Khaliq",
  "ProtocolName": "ep2d_p2_Task_3.5_measurment:237",
  "PulseSequenceDetails": "%SiemensSeq%_ep2d_pace",
  "ReceiveCoilActiveElements": "HC1-7",
  "ReceiveCoilName": "HeadNeck_64",
  "ReconMatrixPE": 70,
  "RefLinesPE": 24,
  "RepetitionTime": 2,
  "SAR": 0.0858195,
  "ScanOptions": "FS",
  "ScanningSequence": "EP",
  "SequenceName": "_epfid2d1_70",
  "SequenceVariant": "SK_OSP",
  "SeriesDescription": "ep2d_p2_Task_3.5_measurment:237",
  "SeriesNumber": 4,
  "ShimSetting": [2603, -4489, -3258, 374, 35, 68, 14, 21],
  "SliceThickness": 3.5,
  "SliceTiming": [0.99, 0, 1.0475, 0.0575, 1.1075, 0.1175, 1.165, 0.175, 1.2225, 0.2325, 1.28, 0.29, 1.34, 0.35, 1.3975, 0.4075, 1.455, 0.465, 1.515, 0.525, 1.5725, 0.5825, 1.63, 0.64, 1.6875, 0.6975, 1.7475, 0.7575, 1.805, 0.815, 1.8625, 0.8725, 1.9225, 0.9325],
  "SoftwareVersions": "syngo_MR_E11",
  "SpacingBetweenSlices": 3.85,
  "StationName": "AWP66088",
  "TaskName": "categorySelectivity",
  "TotalReadoutTime": 0.0253573,
  "TxRefAmp": 230.304,
  "dcmmeta_affine": [
    [-3.5426597595214844, 0.030916452407836914, -0.022866854444146156, 122.28917694091797],
    [0.0357542559504509, 3.3844523429870605, -1.1376806497573853, -86.35160064697266],
    [-0.010965904220938683, 1.0470736026763916, 3.6779966354370117, -69.99176788330078],
    [0.0, 0.0, 0.0, 1.0]
],
  "dcmmeta_reorient_transform": [
    [0.0, -1.0, 0.0, 69.0],
    [1.0, 0.0, 0.0, 0.0],
    [0.0, 0.0, 1.0, 0.0],
    [0.0, 0.0, 0.0, 1.0]
],
  "dcmmeta_shape": [70, 70, 34, 237],
  "dcmmeta_slice_dim": 2,
  "dcmmeta_version": 0.6,
  "global": {
    "const": {
      "AcquisitionMatrix": [70, 0, 0, 70],
      "AngioFlag": "N",
      "BitsAllocated": 16,
      "BitsStored": 12,
      "BodyPartExamined": "HEAD",
      "Columns": 420,
      "EchoNumbers": 1,
      "EchoTime": 30.0,
      "EchoTrainLength": 53,
      "FlipAngle": 90.0,
      "HighBit": 11,
      "ImageOrientationPatient": [0.99994428477258, -0.0100919272664, -0.0030952148061, 0.00872641791144, 0.95528897507964, -0.2955449605758],
      "ImagePositionPatient": [-749.79825301008, -733.19778512894, 187.41321818784],
      "ImageType": [
        "ORIGINAL",
        "PRIMARY",
        "M",
        "ND",
        "NORM",
        "MOSAIC"
],
      "ImagedNucleus": "1H",
      "ImagingFrequency": 123.19119,
      "InPlanePhaseEncodingDirection": "COL",
      "MRAcquisitionType": "2D",
      "MagneticFieldStrength": 3.0,
      "Manufacturer": "SIEMENS",
      "ManufacturerModelName": "Prisma",
      "Modality": "MR",
      "NumberOfAverages": 1.0,
      "NumberOfPhaseEncodingSteps": 105,
      "PercentPhaseFieldOfView": 100.0,
      "PercentSampling": 100.0,
      "PerformedProcedureStepStartTime": "084252.910000",
      "PhotometricInterpretation": "MONOCHROME2",
      "PixelBandwidth": 2465.0,
      "PixelRepresentation": 0,
      "PixelSpacing": [3.542857170105, 3.542857170105],
      "ProtocolName": "ep2d_p2_Task_3.5_measurment:237",
      "RepetitionTime": 2000.0,
      "Rows": 420,
      "SAR": 0.08581947552585,
      "SamplesPerPixel": 1,
      "ScanOptions": "FS",
      "ScanningSequence": "EP",
      "SequenceName": "*epfid2d1_70",
      "SequenceVariant": [
        "SK",
        "OSP"
],
      "SeriesDescription": "ep2d_p2_Task_3.5_measurment:237",
      "SeriesNumber": 4,
      "SeriesTime": "090900.558000",
      "SliceLocation": -42.074106472858,
      "SliceThickness": 3.5,
      "SmallestImagePixelValue": 0,
      "SoftwareVersions": "syngo MR E11",
      "SpacingBetweenSlices": 3.8499999490272,
      "SpecificCharacterSet": "ISO_IR 100",
      "StudyID": "1",
      "StudyTime": "084252.759000",
      "TransmitCoilName": "Body",
      "VariableFlipAngleFlag": "N",
      "WindowCenterWidthExplanation": "Algo1",
      "dBdt": 0.0},
    "slices": {}
  },
  "time": {
    "samples": {
      "AcquisitionNumber": [1, 2, 3, 4, 5, 6, 7, 8, 9, 10, 11, 12, 13, 14, 15, 16, 17, 18, 19, 20, 21, 22, 23, 24, 25, 26, 27, 28, 29, 30, 31, 32, 33, 34, 35, 36, 37, 38, 39, 40, 41, 42, 43, 44, 45, 46, 47, 48, 49, 50, 51, 52, 53, 54, 55, 56, 57, 58, 59, 60, 61, 62, 63, 64, 65, 66, 67, 68, 69, 70, 71, 72, 73, 74, 75, 76, 77, 78, 79, 80, 81, 82, 83, 84, 85, 86, 87, 88, 89, 90, 91, 92, 93, 94, 95, 96, 97, 98, 99, 100, 101, 102, 103, 104, 105, 106, 107, 108, 109, 110, 111, 112, 113, 114, 115, 116, 117, 118, 119, 120, 121, 122, 123, 124, 125, 126, 127, 128, 129, 130, 131, 132, 133, 134, 135, 136, 137, 138, 139, 140, 141, 142, 143, 144, 145, 146, 147, 148, 149, 150, 151, 152, 153, 154, 155, 156, 157, 158, 159, 160, 161, 162, 163, 164, 165, 166, 167, 168, 169, 170, 171, 172, 173, 174, 175, 176, 177, 178, 179, 180, 181, 182, 183, 184, 185, 186, 187, 188, 189, 190, 191, 192, 193, 194, 195, 196, 197, 198, 199, 200, 201, 202, 203, 204, 205, 206, 207, 208, 209, 210, 211, 212, 213, 214, 215, 216, 217, 218, 219, 220, 221, 222, 223, 224, 225, 226, 227, 228, 229, 230, 231, 232, 233, 234, 235, 236, 237],
      "AcquisitionTime": ["090810.127500", "090812.127500", "090814.127500", "090816.127500", "090818.127500", "090820.127500", "090822.127500", "090824.127500", "090826.127500", "090828.127500", "090830.127500", "090832.127500", "090834.127500", "090836.127500", "090838.127500", "090840.127500", "090842.127500", "090844.127500", "090846.127500", "090848.127500", "090850.127500", "090852.127500", "090854.127500", "090856.127500", "090858.127500", "090900.127500", "090902.127500", "090904.127500", "090906.127500", "090908.127500", "090910.127500", "090912.127500", "090914.127500", "090916.127500", "090918.127500", "090920.127500", "090922.127500", "090924.127500", "090926.127500", "090928.127500", "090930.127500", "090932.127500", "090934.127500", "090936.127500", "090938.127500", "090940.127500", "090942.127500", "090944.127500", "090946.127500", "090948.127500", "090950.127500", "090952.127500", "090954.127500", "090956.127500", "090958.127500", "091000.127500", "091002.127500", "091004.127500", "091006.127500", "091008.127500", "091010.127500", "091012.127500", "091014.127500", "091016.127500", "091018.127500", "091020.127500", "091022.127500", "091024.127500", "091026.127500", "091028.127500", "091030.127500", "091032.127500", "091034.127500", "091036.127500", "091038.127500", "091040.127500", "091042.127500", "091044.127500", "091046.127500", "091048.127500", "091050.127500", "091052.127500", "091054.127500", "091056.127500", "091058.127500", "091100.127500", "091102.127500", "091104.127500", "091106.127500", "091108.127500", "091110.127500", "091112.127500", "091114.127500", "091116.127500", "091118.127500", "091120.127500", "091122.127500", "091124.127500", "091126.127500", "091128.127500", "091130.127500", "091132.127500", "091134.127500", "091136.127500", "091138.127500", "091140.127500", "091142.127500", "091144.127500", "091146.127500", "091148.127500", "091150.127500", "091152.127500", "091154.127500", "091156.127500", "091158.127500", "091200.127500", "091202.127500", "091204.127500", "091206.127500", "091208.127500", "091210.127500", "091212.127500", "091214.127500", "091216.127500", "091218.127500", "091220.127500", "091222.127500", "091224.127500", "091226.127500", "091228.127500", "091230.127500", "091232.127500", "091234.127500", "091236.127500", "091238.127500", "091240.127500", "091242.127500", "091244.127500", "091246.127500", "091248.127500", "091250.127500", "091252.127500", "091254.127500", "091256.127500", "091258.127500", "091300.127500", "091302.127500", "091304.127500", "091306.127500", "091308.127500", "091310.127500", "091312.127500", "091314.127500", "091316.127500", "091318.127500", "091320.127500", "091322.127500", "091324.127500", "091326.127500", "091328.127500", "091330.127500", "091332.127500", "091334.127500", "091336.127500", "091338.127500", "091340.127500", "091342.127500", "091344.127500", "091346.127500", "091348.127500", "091350.127500", "091352.127500", "091354.127500", "091356.127500", "091358.127500", "091400.127500", "091402.127500", "091404.127500", "091406.127500", "091408.127500", "091410.127500", "091412.127500", "091414.127500", "091416.127500", "091418.127500", "091420.127500", "091422.127500", "091424.127500", "091426.127500", "091428.127500", "091430.127500", "091432.127500", "091434.127500", "091436.127500", "091438.127500", "091440.127500", "091442.127500", "091444.127500", "091446.127500", "091448.127500", "091450.127500", "091452.127500", "091454.127500", "091456.127500", "091458.127500", "091500.127500", "091502.127500", "091504.127500", "091506.127500", "091508.127500", "091510.127500", "091512.127500", "091514.127500", "091516.127500", "091518.127500", "091520.127500", "091522.127500", "091524.127500", "091526.127500", "091528.127500", "091530.127500", "091532.127500", "091534.127500", "091536.127500", "091538.127500", "091540.127500", "091542.127500", "091544.127500", "091546.127500", "091548.127500", "091550.127500", "091552.127500", "091554.127500", "091556.127500", "091558.127500", "091600.127500", "091602.127500"],
      "ContentTime": ["090900.563000", "090900.567000", "090900.570000", "090900.573000", "090900.576000", "090900.579000", "090900.582000", "090900.586000", "090900.589000", "090900.592000", "090900.595000", "090900.598000", "090900.601000", "090900.604000", "090900.607000", "090900.610000", "090900.613000", "090900.617000", "090900.632000", "090900.635000", "090900.638000", "090900.642000", "090900.645000", "090900.648000", "090900.651000", "090940.554000", "090940.557000", "090940.560000", "090940.563000", "090940.566000", "090940.569000", "090940.572000", "090940.575000", "090940.578000", "090940.581000", "090940.584000", "090940.587000", "090940.590000", "090940.593000", "090940.596000", "090940.599000", "090940.602000", "090940.605000", "090940.608000", "090940.611000", "091020.554000", "091020.558000", "091020.561000", "091020.564000", "091020.567000", "091020.570000", "091020.574000", "091020.577000", "091020.580000", "091020.583000", "091020.587000", "091020.590000", "091020.593000", "091020.596000", "091020.599000", "091020.602000", "091020.605000", "091020.609000", "091020.612000", "091020.615000", "091100.555000", "091100.558000", "091100.562000", "091100.564000", "091100.568000", "091100.571000", "091100.574000", "091100.577000", "091100.580000", "091100.584000", "091100.587000", "091100.590000", "091100.593000", "091100.596000", "091100.599000", "091100.602000", "091100.605000", "091100.608000", "091100.611000", "091100.615000", "091140.555000", "091140.558000", "091140.561000", "091140.567000", "091140.571000", "091140.573000", "091140.576000", "091140.579000", "091140.582000", "091140.585000", "091140.588000", "091140.592000", "091140.594000", "091140.598000", "091140.601000", "091140.604000", "091140.607000", "091140.610000", "091140.613000", "091140.616000", "091220.554000", "091220.557000", "091220.560000", "091220.563000", "091220.567000", "091220.570000", "091220.573000", "091220.576000", "091220.579000", "091220.582000", "091220.585000", "091220.588000", "091220.591000", "091220.594000", "091220.597000", "091220.600000", "091220.604000", "091220.607000", "091220.609000", "091220.612000", "091300.554000", "091300.557000", "091300.560000", "091300.564000", "091300.567000", "091300.570000", "091300.573000", "091300.576000", "091300.579000", "091300.582000", "091300.585000", "091300.589000", "091300.598000", "091300.601000", "091300.604000", "091300.607000", "091300.610000", "091300.613000", "091300.616000", "091300.619000", "091340.556000", "091340.560000", "091340.564000", "091340.567000", "091340.570000", "091340.573000", "091340.576000", "091340.580000", "091340.583000", "091340.586000", "091340.589000", "091340.592000", "091340.595000", "091340.599000", "091340.602000", "091340.610000", "091340.613000", "091340.616000", "091340.620000", "091340.623000", "091400.556000", "091400.559000", "091400.562000", "091400.565000", "091400.568000", "091400.571000", "091400.574000", "091400.577000", "091400.580000", "091400.584000", "091440.555000", "091440.559000", "091440.565000", "091440.568000", "091440.571000", "091440.574000", "091440.578000", "091440.581000", "091440.584000", "091440.587000", "091440.590000", "091440.593000", "091440.596000", "091440.599000", "091440.602000", "091440.605000", "091440.608000", "091440.611000", "091440.614000", "091440.617000", "091520.554000", "091520.557000", "091520.560000", "091520.564000", "091520.567000", "091520.570000", "091520.573000", "091520.576000", "091520.579000", "091520.583000", "091520.586000", "091520.589000", "091520.592000", "091520.595000", "091520.598000", "091520.602000", "091520.605000", "091520.608000", "091520.612000", "091520.615000", "091600.555000", "091600.558000", "091600.565000", "091600.568000", "091600.572000", "091600.575000", "091600.578000", "091600.581000", "091600.584000", "091600.587000", "091600.590000", "091600.594000", "091600.597000", "091600.600000", "091600.603000", "091600.606000", "091600.609000", "091600.612000", "091600.616000", "091600.619000", "091603.401000", "091603.403000"],
      "InstanceCreationTime": ["090900.563000", "090900.567000", "090900.570000", "090900.573000", "090900.576000", "090900.579000", "090900.582000", "090900.586000", "090900.589000", "090900.592000", "090900.595000", "090900.598000", "090900.601000", "090900.604000", "090900.607000", "090900.610000", "090900.613000", "090900.617000", "090900.632000", "090900.635000", "090900.638000", "090900.642000", "090900.645000", "090900.648000", "090900.651000", "090940.554000", "090940.557000", "090940.560000", "090940.563000", "090940.566000", "090940.569000", "090940.572000", "090940.575000", "090940.578000", "090940.581000", "090940.584000", "090940.587000", "090940.590000", "090940.593000", "090940.596000", "090940.599000", "090940.602000", "090940.605000", "090940.608000", "090940.611000", "091020.554000", "091020.558000", "091020.561000", "091020.564000", "091020.567000", "091020.570000", "091020.574000", "091020.577000", "091020.580000", "091020.583000", "091020.587000", "091020.590000", "091020.593000", "091020.596000", "091020.599000", "091020.602000", "091020.605000", "091020.609000", "091020.612000", "091020.615000", "091100.555000", "091100.558000", "091100.562000", "091100.564000", "091100.568000", "091100.571000", "091100.574000", "091100.577000", "091100.580000", "091100.584000", "091100.587000", "091100.590000", "091100.593000", "091100.596000", "091100.599000", "091100.602000", "091100.605000", "091100.608000", "091100.611000", "091100.615000", "091140.555000", "091140.558000", "091140.561000", "091140.567000", "091140.571000", "091140.573000", "091140.576000", "091140.579000", "091140.582000", "091140.585000", "091140.588000", "091140.592000", "091140.594000", "091140.598000", "091140.601000", "091140.604000", "091140.607000", "091140.610000", "091140.613000", "091140.616000", "091220.554000", "091220.557000", "091220.560000", "091220.563000", "091220.567000", "091220.570000", "091220.573000", "091220.576000", "091220.579000", "091220.582000", "091220.585000", "091220.588000", "091220.591000", "091220.594000", "091220.597000", "091220.600000", "091220.604000", "091220.607000", "091220.609000", "091220.612000", "091300.554000", "091300.557000", "091300.560000", "091300.564000", "091300.567000", "091300.570000", "091300.573000", "091300.576000", "091300.579000", "091300.582000", "091300.585000", "091300.589000", "091300.598000", "091300.601000", "091300.604000", "091300.607000", "091300.610000", "091300.613000", "091300.616000", "091300.619000", "091340.556000", "091340.560000", "091340.564000", "091340.567000", "091340.570000", "091340.573000", "091340.576000", "091340.580000", "091340.583000", "091340.586000", "091340.589000", "091340.592000", "091340.595000", "091340.599000", "091340.602000", "091340.610000", "091340.613000", "091340.616000", "091340.620000", "091340.623000", "091400.556000", "091400.559000", "091400.562000", "091400.565000", "091400.568000", "091400.571000", "091400.574000", "091400.577000", "091400.580000", "091400.584000", "091440.555000", "091440.559000", "091440.565000", "091440.568000", "091440.571000", "091440.574000", "091440.578000", "091440.581000", "091440.584000", "091440.587000", "091440.590000", "091440.593000", "091440.596000", "091440.599000", "091440.602000", "091440.605000", "091440.608000", "091440.611000", "091440.614000", "091440.617000", "091520.554000", "091520.557000", "091520.560000", "091520.564000", "091520.567000", "091520.570000", "091520.573000", "091520.576000", "091520.579000", "091520.583000", "091520.586000", "091520.589000", "091520.592000", "091520.595000", "091520.598000", "091520.602000", "091520.605000", "091520.608000", "091520.612000", "091520.615000", "091600.555000", "091600.558000", "091600.565000", "091600.568000", "091600.572000", "091600.575000", "091600.578000", "091600.581000", "091600.584000", "091600.587000", "091600.590000", "091600.594000", "091600.597000", "091600.600000", "091600.603000", "091600.606000", "091600.609000", "091600.612000", "091600.616000", "091600.619000", "091603.401000", "091603.403000"],
      "InstanceNumber": [1, 2, 3, 4, 5, 6, 7, 8, 9, 10, 11, 12, 13, 14, 15, 16, 17, 18, 19, 20, 21, 22, 23, 24, 25, 26, 27, 28, 29, 30, 31, 32, 33, 34, 35, 36, 37, 38, 39, 40, 41, 42, 43, 44, 45, 46, 47, 48, 49, 50, 51, 52, 53, 54, 55, 56, 57, 58, 59, 60, 61, 62, 63, 64, 65, 66, 67, 68, 69, 70, 71, 72, 73, 74, 75, 76, 77, 78, 79, 80, 81, 82, 83, 84, 85, 86, 87, 88, 89, 90, 91, 92, 93, 94, 95, 96, 97, 98, 99, 100, 101, 102, 103, 104, 105, 106, 107, 108, 109, 110, 111, 112, 113, 114, 115, 116, 117, 118, 119, 120, 121, 122, 123, 124, 125, 126, 127, 128, 129, 130, 131, 132, 133, 134, 135, 136, 137, 138, 139, 140, 141, 142, 143, 144, 145, 146, 147, 148, 149, 150, 151, 152, 153, 154, 155, 156, 157, 158, 159, 160, 161, 162, 163, 164, 165, 166, 167, 168, 169, 170, 171, 172, 173, 174, 175, 176, 177, 178, 179, 180, 181, 182, 183, 184, 185, 186, 187, 188, 189, 190, 191, 192, 193, 194, 195, 196, 197, 198, 199, 200, 201, 202, 203, 204, 205, 206, 207, 208, 209, 210, 211, 212, 213, 214, 215, 216, 217, 218, 219, 220, 221, 222, 223, 224, 225, 226, 227, 228, 229, 230, 231, 232, 233, 234, 235, 236, 237],
      "LargestImagePixelValue": [2303, 2037, 2083, 1851, 2221, 1896, 2179, 1888, 2438, 1875, 2180, 1871, 1937, 2256, 1904, 2101, 1882, 1892, 1987, 1978, 2156, 1910, 2116, 1891, 2195, 1870, 2159, 1875, 2066, 1867, 1875, 2224, 1879, 2117, 1872, 2075, 2296, 1888, 2134, 1886, 2129, 2268, 1884, 2110, 2242, 1884, 2001, 1897, 2042, 2246, 1875, 2003, 1882, 2011, 1868, 2104, 1881, 1941, 2174, 1870, 2112, 1865, 2165, 1868, 2141, 1873, 2175, 1881, 2079, 1881, 2121, 1890, 2133, 1855, 2123, 1860, 2144, 1868, 2083, 1873, 1881, 2134, 1867, 2131, 1869, 2108, 2125, 2117, 1855, 2014, 1862, 1952, 2209, 1883, 2171, 1870, 1997, 1970, 1880, 2207, 1864, 2015, 1861, 1868, 2201, 1868, 2014, 2219, 1876, 1936, 1876, 1995, 1922, 1883, 2322, 1867, 2201, 1861, 2036, 1859, 1978, 1879, 2197, 1854, 2091, 1854, 1972, 2171, 1879, 2043, 1879, 2096, 1889, 1848, 2078, 1854, 2096, 1855, 1895, 2217, 1857, 2066, 1846, 1857, 2136, 1860, 1859, 2025, 1860, 2046, 1864, 2034, 2276, 1863, 2006, 1864, 1958, 2271, 1856, 1973, 1867, 1992, 1872, 1861, 1970, 1856, 2046, 1877, 2099, 2058, 1874, 2042, 1882, 1994, 1933, 1877, 2050, 2047, 1894, 2145, 1891, 1917, 2226, 1892, 2075, 1882, 2029, 2174, 1880, 2037, 2199, 1874, 1962, 1879, 1888, 2197, 1892, 1892, 2146, 1876, 2179, 1890, 2126, 1879, 2150, 2345, 1870, 1946, 2078, 1887, 1886, 2199, 1887, 2078, 2252, 1886, 1887, 2169, 1872, 2025, 2202, 1875, 1883, 2148, 1867, 1884, 2140, 1876, 1876, 1938, 2194, 2131, 1854, 1903, 2125, 1856, 1924],
      "WindowCenter": [702.0, 699.0, 698.0, 698.0, 700.0, 700.0, 700.0, 700.0, 700.0, 698.0, 698.0, 697.0, 697.0, 699.0, 698.0, 699.0, 697.0, 698.0, 699.0, 698.0, 699.0, 699.0, 699.0, 698.0, 698.0, 698.0, 698.0, 698.0, 697.0, 698.0, 696.0, 699.0, 696.0, 699.0, 697.0, 699.0, 699.0, 698.0, 698.0, 697.0, 699.0, 699.0, 697.0, 698.0, 698.0, 698.0, 698.0, 698.0, 698.0, 698.0, 698.0, 698.0, 697.0, 698.0, 698.0, 698.0, 698.0, 697.0, 697.0, 697.0, 698.0, 697.0, 699.0, 697.0, 698.0, 698.0, 699.0, 698.0, 698.0, 697.0, 698.0, 698.0, 698.0, 697.0, 698.0, 697.0, 698.0, 698.0, 698.0, 698.0, 697.0, 698.0, 699.0, 699.0, 698.0, 697.0, 697.0, 697.0, 697.0, 698.0, 698.0, 699.0, 700.0, 698.0, 699.0, 698.0, 699.0, 698.0, 698.0, 697.0, 697.0, 697.0, 698.0, 698.0, 698.0, 698.0, 698.0, 699.0, 698.0, 698.0, 698.0, 698.0, 698.0, 697.0, 699.0, 698.0, 698.0, 697.0, 697.0, 698.0, 698.0, 698.0, 698.0, 697.0, 698.0, 697.0, 697.0, 698.0, 697.0, 698.0, 698.0, 699.0, 697.0, 698.0, 698.0, 698.0, 698.0, 698.0, 698.0, 698.0, 697.0, 698.0, 698.0, 697.0, 698.0, 697.0, 697.0, 698.0, 698.0, 698.0, 699.0, 699.0, 698.0, 698.0, 698.0, 697.0, 698.0, 698.0, 698.0, 697.0, 697.0, 698.0, 698.0, 697.0, 697.0, 698.0, 699.0, 697.0, 698.0, 697.0, 698.0, 698.0, 698.0, 698.0, 698.0, 697.0, 698.0, 698.0, 697.0, 699.0, 698.0, 697.0, 699.0, 698.0, 699.0, 698.0, 698.0, 698.0, 697.0, 697.0, 698.0, 698.0, 698.0, 698.0, 698.0, 698.0, 698.0, 697.0, 699.0, 698.0, 698.0, 698.0, 698.0, 698.0, 698.0, 698.0, 696.0, 696.0, 696.0, 696.0, 697.0, 699.0, 698.0, 698.0, 698.0, 698.0, 698.0, 699.0, 698.0, 698.0, 698.0, 697.0, 698.0, 697.0, 698.0, 698.0, 698.0, 698.0, 698.0, 698.0, 698.0, 698.0, 698.0, 698.0, 699.0, 698.0, 698.0],
      "WindowWidth": [1580.0, 1572.0, 1569.0, 1568.0, 1573.0, 1572.0, 1575.0, 1572.0, 1575.0, 1565.0, 1567.0, 1562.0, 1565.0, 1571.0, 1567.0, 1568.0, 1564.0, 1567.0, 1571.0, 1568.0, 1571.0, 1569.0, 1570.0, 1567.0, 1569.0, 1566.0, 1568.0, 1567.0, 1565.0, 1565.0, 1562.0, 1569.0, 1562.0, 1568.0, 1564.0, 1569.0, 1571.0, 1566.0, 1567.0, 1565.0, 1569.0, 1570.0, 1564.0, 1568.0, 1569.0, 1565.0, 1568.0, 1568.0, 1568.0, 1568.0, 1566.0, 1565.0, 1564.0, 1567.0, 1565.0, 1567.0, 1566.0, 1564.0, 1566.0, 1564.0, 1568.0, 1565.0, 1569.0, 1564.0, 1568.0, 1567.0, 1570.0, 1566.0, 1567.0, 1563.0, 1568.0, 1565.0, 1566.0, 1563.0, 1567.0, 1564.0, 1567.0, 1566.0, 1567.0, 1564.0, 1564.0, 1567.0, 1569.0, 1571.0, 1567.0, 1565.0, 1563.0, 1563.0, 1562.0, 1567.0, 1567.0, 1569.0, 1573.0, 1567.0, 1569.0, 1566.0, 1568.0, 1567.0, 1564.0, 1565.0, 1563.0, 1564.0, 1565.0, 1564.0, 1568.0, 1565.0, 1567.0, 1569.0, 1567.0, 1567.0, 1567.0, 1567.0, 1567.0, 1564.0, 1569.0, 1564.0, 1567.0, 1564.0, 1565.0, 1566.0, 1566.0, 1564.0, 1568.0, 1564.0, 1565.0, 1563.0, 1565.0, 1568.0, 1564.0, 1568.0, 1565.0, 1569.0, 1564.0, 1564.0, 1568.0, 1565.0, 1569.0, 1566.0, 1566.0, 1567.0, 1563.0, 1566.0, 1565.0, 1563.0, 1566.0, 1564.0, 1564.0, 1567.0, 1566.0, 1567.0, 1567.0, 1568.0, 1566.0, 1564.0, 1565.0, 1564.0, 1565.0, 1567.0, 1564.0, 1563.0, 1564.0, 1566.0, 1565.0, 1564.0, 1563.0, 1565.0, 1568.0, 1564.0, 1565.0, 1564.0, 1565.0, 1567.0, 1567.0, 1567.0, 1565.0, 1563.0, 1564.0, 1565.0, 1565.0, 1568.0, 1565.0, 1564.0, 1570.0, 1567.0, 1570.0, 1565.0, 1565.0, 1565.0, 1563.0, 1564.0, 1565.0, 1564.0, 1566.0, 1566.0, 1565.0, 1567.0, 1565.0, 1564.0, 1569.0, 1566.0, 1566.0, 1565.0, 1566.0, 1565.0, 1566.0, 1565.0, 1559.0, 1560.0, 1561.0, 1561.0, 1563.0, 1568.0, 1565.0, 1567.0, 1568.0, 1565.0, 1565.0, 1569.0, 1564.0, 1566.0, 1566.0, 1562.0, 1563.0, 1565.0, 1564.0, 1564.0, 1565.0, 1565.0, 1565.0, 1566.0, 1566.0, 1566.0, 1564.0, 1567.0, 1570.0, 1567.0, 1567.0]
    },
    "slices": {}
  }
}