{
  "AcquisitionMatrixPE": 70,
  "AcquisitionNumber": 1,
  "AcquisitionTime": "09:16:51.000000",
  "BandwidthPerPixelPhaseEncode": 38.873,
  "BaseResolution": 70,
  "BodyPartExamined": "HEAD",
  "ConsistencyInfo": "N4_VE11B_LATEST_20150530",
  "ConversionSoftware": "dcm2niix",
  "ConversionSoftwareVersion": "v1.0.20190410  GCC6.3.0",
  "DerivedVendorReportedEchoSpacing": 0.000489996,
  "DeviceSerialNumber": "66088",
  "DwellTime": 2.9e-06,
  "EchoTime": 0.03,
  "EchoTrainLength": 53,
  "EffectiveEchoSpacing": 0.000367497,
  "FlipAngle": 90,
  "ImageOrientationPatientDICOM": [0.999944, -0.0100919, -0.00309521, 0.00872642, 0.955289, -0.295545],
  "ImageType": [
    "ORIGINAL",
    "PRIMARY",
    "M",
    "ND",
    "NORM",
    "MOSAIC"
],
  "ImagingFrequency": 123.191,
  "InPlanePhaseEncodingDirectionDICOM": "COL",
  "InstitutionAddress": "Street_StreetNo_City_District_IR_ZIP",
  "InstitutionName": "Hospital",
  "InstitutionalDepartmentName": "Department",
  "MRAcquisitionType": "2D",
  "MagneticFieldStrength": 3,
  "Manufacturer": "Siemens",
  "ManufacturersModelName": "Prisma",
  "Modality": "MR",
  "ParallelReductionFactorInPlane": 2,
  "PartialFourier": 1,
  "PatientPosition": "HFS",
  "PercentPhaseFOV": 100,
  "PhaseEncodingDirection": "j-",
  "PhaseEncodingSteps": 105,
  "PhaseOversampling": 0.5,
  "PhaseResolution": 1,
  "PixelBandwidth": 2465,
  "ProcedureStepDescription": "NBML_Project_P-96169_Ebrahiminiya-Khaliq",
  "ProtocolName": "ep2d_p2_Task_3.5_measurment:237",
  "PulseSequenceDetails": "%SiemensSeq%_ep2d_pace",
  "ReceiveCoilActiveElements": "HC1-7",
  "ReceiveCoilName": "HeadNeck_64",
  "ReconMatrixPE": 70,
  "RefLinesPE": 24,
  "RepetitionTime": 2,
  "SAR": 0.0858195,
  "ScanOptions": "FS",
  "ScanningSequence": "EP",
  "SequenceName": "_epfid2d1_70",
  "SequenceVariant": "SK_OSP",
  "SeriesDescription": "ep2d_p2_Task_3.5_measurment:237",
  "SeriesNumber": 5,
  "ShimSetting": [2603, -4489, -3258, 374, 35, 68, 14, 21],
  "SliceThickness": 3.5,
  "SliceTiming": [0.99, 0, 1.05, 0.06, 1.1075, 0.1175, 1.165, 0.175, 1.225, 0.235, 1.2825, 0.2925, 1.34, 0.35, 1.3975, 0.4075, 1.4575, 0.4675, 1.515, 0.525, 1.5725, 0.5825, 1.6325, 0.6425, 1.69, 0.7, 1.7475, 0.7575, 1.805, 0.8175, 1.865, 0.875, 1.9225, 0.9325],
  "SoftwareVersions": "syngo_MR_E11",
  "SpacingBetweenSlices": 3.85,
  "StationName": "AWP66088",
  "TaskName": "categorySelectivity",
  "TotalReadoutTime": 0.0253573,
  "TxRefAmp": 230.304,
  "dcmmeta_affine": [
    [-3.5426597595214844, 0.030916452407836914, -0.022866854444146156, 122.28917694091797],
    [0.0357542559504509, 3.3844523429870605, -1.1376806497573853, -86.35160064697266],
    [-0.010965904220938683, 1.0470736026763916, 3.6779966354370117, -69.99176788330078],
    [0.0, 0.0, 0.0, 1.0]
],
  "dcmmeta_reorient_transform": [
    [0.0, -1.0, 0.0, 69.0],
    [1.0, 0.0, 0.0, 0.0],
    [0.0, 0.0, 1.0, 0.0],
    [0.0, 0.0, 0.0, 1.0]
],
  "dcmmeta_shape": [70, 70, 34, 237],
  "dcmmeta_slice_dim": 2,
  "dcmmeta_version": 0.6,
  "global": {
    "const": {
      "AcquisitionMatrix": [70, 0, 0, 70],
      "AngioFlag": "N",
      "BitsAllocated": 16,
      "BitsStored": 12,
      "BodyPartExamined": "HEAD",
      "Columns": 420,
      "EchoNumbers": 1,
      "EchoTime": 30.0,
      "EchoTrainLength": 53,
      "FlipAngle": 90.0,
      "HighBit": 11,
      "ImageOrientationPatient": [0.99994428477258, -0.0100919272664, -0.0030952148061, 0.00872641791144, 0.95528897507964, -0.2955449605758],
      "ImagePositionPatient": [-749.79825301008, -733.19778512894, 187.41321818784],
      "ImageType": [
        "ORIGINAL",
        "PRIMARY",
        "M",
        "ND",
        "NORM",
        "MOSAIC"
],
      "ImagedNucleus": "1H",
      "ImagingFrequency": 123.19119,
      "InPlanePhaseEncodingDirection": "COL",
      "MRAcquisitionType": "2D",
      "MagneticFieldStrength": 3.0,
      "Manufacturer": "SIEMENS",
      "ManufacturerModelName": "Prisma",
      "Modality": "MR",
      "NumberOfAverages": 1.0,
      "NumberOfPhaseEncodingSteps": 105,
      "PercentPhaseFieldOfView": 100.0,
      "PercentSampling": 100.0,
      "PerformedProcedureStepStartTime": "084252.910000",
      "PhotometricInterpretation": "MONOCHROME2",
      "PixelBandwidth": 2465.0,
      "PixelRepresentation": 0,
      "PixelSpacing": [3.542857170105, 3.542857170105],
      "ProtocolName": "ep2d_p2_Task_3.5_measurment:237",
      "RepetitionTime": 2000.0,
      "Rows": 420,
      "SAR": 0.08581947552585,
      "SamplesPerPixel": 1,
      "ScanOptions": "FS",
      "ScanningSequence": "EP",
      "SequenceName": "*epfid2d1_70",
      "SequenceVariant": [
        "SK",
        "OSP"
],
      "SeriesDescription": "ep2d_p2_Task_3.5_measurment:237",
      "SeriesNumber": 5,
      "SeriesTime": "091747.413000",
      "SliceLocation": -42.074106472858,
      "SliceThickness": 3.5,
      "SmallestImagePixelValue": 0,
      "SoftwareVersions": "syngo MR E11",
      "SpacingBetweenSlices": 3.8499999490272,
      "SpecificCharacterSet": "ISO_IR 100",
      "StudyID": "1",
      "StudyTime": "084252.759000",
      "TransmitCoilName": "Body",
      "VariableFlipAngleFlag": "N",
      "WindowCenterWidthExplanation": "Algo1",
      "dBdt": 0.0},
    "slices": {}
  },
  "time": {
    "samples": {
      "AcquisitionNumber": [1, 2, 3, 4, 5, 6, 7, 8, 9, 10, 11, 12, 13, 14, 15, 16, 17, 18, 19, 20, 21, 22, 23, 24, 25, 26, 27, 28, 29, 30, 31, 32, 33, 34, 35, 36, 37, 38, 39, 40, 41, 42, 43, 44, 45, 46, 47, 48, 49, 50, 51, 52, 53, 54, 55, 56, 57, 58, 59, 60, 61, 62, 63, 64, 65, 66, 67, 68, 69, 70, 71, 72, 73, 74, 75, 76, 77, 78, 79, 80, 81, 82, 83, 84, 85, 86, 87, 88, 89, 90, 91, 92, 93, 94, 95, 96, 97, 98, 99, 100, 101, 102, 103, 104, 105, 106, 107, 108, 109, 110, 111, 112, 113, 114, 115, 116, 117, 118, 119, 120, 121, 122, 123, 124, 125, 126, 127, 128, 129, 130, 131, 132, 133, 134, 135, 136, 137, 138, 139, 140, 141, 142, 143, 144, 145, 146, 147, 148, 149, 150, 151, 152, 153, 154, 155, 156, 157, 158, 159, 160, 161, 162, 163, 164, 165, 166, 167, 168, 169, 170, 171, 172, 173, 174, 175, 176, 177, 178, 179, 180, 181, 182, 183, 184, 185, 186, 187, 188, 189, 190, 191, 192, 193, 194, 195, 196, 197, 198, 199, 200, 201, 202, 203, 204, 205, 206, 207, 208, 209, 210, 211, 212, 213, 214, 215, 216, 217, 218, 219, 220, 221, 222, 223, 224, 225, 226, 227, 228, 229, 230, 231, 232, 233, 234, 235, 236, 237],
      "AcquisitionTime": ["091651.000000", "091653.000000", "091655.000000", "091657.000000", "091659.000000", "091701.000000", "091703.000000", "091705.000000", "091707.000000", "091709.000000", "091711.000000", "091713.000000", "091715.000000", "091717.000000", "091719.000000", "091721.000000", "091723.000000", "091725.000000", "091727.000000", "091729.000000", "091731.000000", "091733.000000", "091735.000000", "091737.000000", "091739.000000", "091741.000000", "091743.000000", "091745.000000", "091747.000000", "091749.000000", "091751.000000", "091753.000000", "091755.000000", "091757.000000", "091759.000000", "091801.000000", "091803.000000", "091805.000000", "091807.000000", "091809.000000", "091811.000000", "091813.000000", "091815.000000", "091817.000000", "091819.000000", "091821.000000", "091823.000000", "091825.000000", "091827.000000", "091829.000000", "091831.000000", "091833.000000", "091835.000000", "091837.000000", "091839.000000", "091841.000000", "091843.000000", "091845.000000", "091847.000000", "091849.000000", "091851.000000", "091853.000000", "091855.000000", "091857.000000", "091859.000000", "091901.000000", "091903.000000", "091905.000000", "091907.000000", "091909.000000", "091911.000000", "091913.000000", "091915.000000", "091917.000000", "091919.000000", "091921.000000", "091923.000000", "091925.000000", "091927.000000", "091929.000000", "091931.000000", "091933.000000", "091935.000000", "091937.000000", "091939.000000", "091941.000000", "091943.000000", "091945.000000", "091947.000000", "091949.000000", "091951.000000", "091953.000000", "091955.000000", "091957.000000", "091959.000000", "092001.000000", "092003.000000", "092005.000000", "092007.000000", "092009.000000", "092011.000000", "092013.000000", "092015.000000", "092017.000000", "092019.000000", "092021.000000", "092023.000000", "092025.000000", "092027.000000", "092029.000000", "092031.000000", "092033.000000", "092035.000000", "092037.000000", "092039.000000", "092041.000000", "092043.000000", "092045.000000", "092047.000000", "092049.000000", "092051.000000", "092053.000000", "092055.000000", "092057.000000", "092059.000000", "092101.000000", "092103.000000", "092105.000000", "092107.000000", "092109.000000", "092111.000000", "092113.000000", "092115.000000", "092117.000000", "092119.000000", "092121.000000", "092123.000000", "092125.000000", "092127.000000", "092129.000000", "092131.000000", "092133.000000", "092135.000000", "092137.000000", "092139.000000", "092141.000000", "092143.000000", "092145.000000", "092147.000000", "092149.000000", "092151.000000", "092153.000000", "092155.000000", "092157.000000", "092159.000000", "092201.000000", "092203.000000", "092205.000000", "092207.000000", "092209.000000", "092211.000000", "092213.000000", "092215.000000", "092217.000000", "092219.000000", "092221.000000", "092223.000000", "092225.000000", "092227.000000", "092229.000000", "092231.000000", "092233.000000", "092235.000000", "092237.000000", "092239.000000", "092241.000000", "092243.000000", "092245.000000", "092247.000000", "092249.000000", "092251.000000", "092253.000000", "092255.000000", "092257.000000", "092259.000000", "092301.000000", "092303.000000", "092305.000000", "092307.000000", "092309.000000", "092311.000000", "092313.000000", "092315.000000", "092317.000000", "092319.000000", "092321.000000", "092323.000000", "092325.000000", "092327.000000", "092329.000000", "092331.000000", "092333.000000", "092335.000000", "092337.000000", "092339.000000", "092341.000000", "092343.000000", "092345.000000", "092347.000000", "092349.000000", "092351.000000", "092353.000000", "092355.000000", "092357.000000", "092359.000000", "092401.000000", "092403.000000", "092405.000000", "092407.000000", "092409.000000", "092411.000000", "092413.000000", "092415.000000", "092417.000000", "092419.000000", "092421.000000", "092423.000000", "092425.000000", "092427.000000", "092429.000000", "092431.000000", "092433.000000", "092435.000000", "092437.000000", "092439.000000", "092441.000000", "092443.000000"],
      "ContentTime": ["091747.417000", "091747.420000", "091747.422000", "091747.425000", "091747.427000", "091747.430000", "091747.432000", "091747.434000", "091747.437000", "091747.439000", "091747.442000", "091747.444000", "091747.452000", "091747.454000", "091747.457000", "091747.459000", "091747.461000", "091747.464000", "091747.466000", "091747.469000", "091747.471000", "091747.473000", "091747.476000", "091747.478000", "091747.481000", "091747.483000", "091747.485000", "091747.488000", "091827.410000", "091827.413000", "091827.415000", "091827.418000", "091827.420000", "091827.423000", "091827.425000", "091827.428000", "091827.431000", "091827.433000", "091827.436000", "091827.438000", "091827.441000", "091827.443000", "091827.446000", "091827.452000", "091827.455000", "091827.458000", "091827.460000", "091827.463000", "091907.409000", "091907.412000", "091907.415000", "091907.417000", "091907.419000", "091907.422000", "091907.424000", "091907.427000", "091907.429000", "091907.431000", "091907.434000", "091907.436000", "091907.438000", "091907.441000", "091907.443000", "091907.446000", "091907.448000", "091907.450000", "091907.453000", "091907.455000", "091947.411000", "091947.413000", "091947.421000", "091947.424000", "091947.427000", "091947.429000", "091947.432000", "091947.434000", "091947.437000", "091947.439000", "091947.455000", "091947.457000", "091947.460000", "091947.462000", "091947.465000", "091947.467000", "091947.470000", "091947.472000", "091947.475000", "091947.478000", "092027.410000", "092027.413000", "092027.415000", "092027.418000", "092027.420000", "092027.423000", "092027.426000", "092027.428000", "092027.431000", "092027.433000", "092027.436000", "092027.438000", "092027.447000", "092027.449000", "092027.452000", "092027.454000", "092027.457000", "092027.459000", "092027.462000", "092027.464000", "092107.412000", "092107.415000", "092107.418000", "092107.421000", "092107.423000", "092107.426000", "092107.429000", "092107.431000", "092107.434000", "092107.436000", "092107.439000", "092107.441000", "092107.444000", "092107.446000", "092107.449000", "092107.451000", "092107.454000", "092107.457000", "092107.459000", "092107.462000", "092147.410000", "092147.413000", "092147.416000", "092147.418000", "092147.420000", "092147.423000", "092147.425000", "092147.427000", "092147.430000", "092147.432000", "092147.435000", "092147.437000", "092147.440000", "092147.442000", "092147.444000", "092147.447000", "092147.449000", "092147.452000", "092147.454000", "092147.456000", "092227.411000", "092227.413000", "092227.416000", "092227.418000", "092227.421000", "092227.423000", "092227.425000", "092227.428000", "092227.430000", "092227.433000", "092227.435000", "092227.437000", "092227.440000", "092227.442000", "092227.444000", "092227.447000", "092227.449000", "092227.452000", "092227.454000", "092227.456000", "092307.409000", "092307.412000", "092307.415000", "092307.418000", "092307.420000", "092307.423000", "092307.425000", "092307.428000", "092307.430000", "092307.433000", "092307.436000", "092307.438000", "092307.441000", "092307.445000", "092307.447000", "092307.450000", "092307.452000", "092307.455000", "092307.458000", "092307.461000", "092347.410000", "092347.413000", "092347.415000", "092347.418000", "092347.420000", "092347.423000", "092347.425000", "092347.428000", "092347.431000", "092347.433000", "092347.436000", "092347.448000", "092347.450000", "092347.453000", "092347.456000", "092347.458000", "092347.461000", "092347.463000", "092347.466000", "092347.468000", "092427.411000", "092427.413000", "092427.416000", "092427.418000", "092427.420000", "092427.423000", "092427.425000", "092427.428000", "092427.430000", "092427.432000", "092427.435000", "092427.437000", "092427.440000", "092427.442000", "092427.444000", "092427.447000", "092427.449000", "092427.452000", "092427.454000", "092427.456000", "092444.788000", "092444.791000", "092444.793000", "092444.796000", "092444.799000", "092444.801000", "092444.804000", "092444.807000", "092444.809000"],
      "InstanceCreationTime": ["091747.417000", "091747.420000", "091747.422000", "091747.425000", "091747.427000", "091747.430000", "091747.432000", "091747.434000", "091747.437000", "091747.439000", "091747.442000", "091747.444000", "091747.452000", "091747.454000", "091747.457000", "091747.459000", "091747.461000", "091747.464000", "091747.466000", "091747.469000", "091747.471000", "091747.473000", "091747.476000", "091747.478000", "091747.481000", "091747.483000", "091747.485000", "091747.488000", "091827.410000", "091827.413000", "091827.415000", "091827.418000", "091827.420000", "091827.423000", "091827.425000", "091827.428000", "091827.431000", "091827.433000", "091827.436000", "091827.438000", "091827.441000", "091827.443000", "091827.446000", "091827.452000", "091827.455000", "091827.458000", "091827.460000", "091827.463000", "091907.409000", "091907.412000", "091907.415000", "091907.417000", "091907.419000", "091907.422000", "091907.424000", "091907.427000", "091907.429000", "091907.431000", "091907.434000", "091907.436000", "091907.438000", "091907.441000", "091907.443000", "091907.446000", "091907.448000", "091907.450000", "091907.453000", "091907.455000", "091947.411000", "091947.413000", "091947.421000", "091947.424000", "091947.427000", "091947.429000", "091947.432000", "091947.434000", "091947.437000", "091947.439000", "091947.455000", "091947.457000", "091947.460000", "091947.462000", "091947.465000", "091947.467000", "091947.470000", "091947.472000", "091947.475000", "091947.478000", "092027.410000", "092027.413000", "092027.415000", "092027.418000", "092027.420000", "092027.423000", "092027.426000", "092027.428000", "092027.431000", "092027.433000", "092027.436000", "092027.438000", "092027.447000", "092027.449000", "092027.452000", "092027.454000", "092027.457000", "092027.459000", "092027.462000", "092027.464000", "092107.412000", "092107.415000", "092107.418000", "092107.421000", "092107.423000", "092107.426000", "092107.429000", "092107.431000", "092107.434000", "092107.436000", "092107.439000", "092107.441000", "092107.444000", "092107.446000", "092107.449000", "092107.451000", "092107.454000", "092107.457000", "092107.459000", "092107.462000", "092147.410000", "092147.413000", "092147.416000", "092147.418000", "092147.420000", "092147.423000", "092147.425000", "092147.427000", "092147.430000", "092147.432000", "092147.435000", "092147.437000", "092147.440000", "092147.442000", "092147.444000", "092147.447000", "092147.449000", "092147.452000", "092147.454000", "092147.456000", "092227.411000", "092227.413000", "092227.416000", "092227.418000", "092227.421000", "092227.423000", "092227.425000", "092227.428000", "092227.430000", "092227.433000", "092227.435000", "092227.437000", "092227.440000", "092227.442000", "092227.444000", "092227.447000", "092227.449000", "092227.452000", "092227.454000", "092227.456000", "092307.409000", "092307.412000", "092307.415000", "092307.418000", "092307.420000", "092307.423000", "092307.425000", "092307.428000", "092307.430000", "092307.433000", "092307.436000", "092307.438000", "092307.441000", "092307.445000", "092307.447000", "092307.450000", "092307.452000", "092307.455000", "092307.458000", "092307.461000", "092347.410000", "092347.413000", "092347.415000", "092347.418000", "092347.420000", "092347.423000", "092347.425000", "092347.428000", "092347.431000", "092347.433000", "092347.436000", "092347.448000", "092347.450000", "092347.453000", "092347.456000", "092347.458000", "092347.461000", "092347.463000", "092347.466000", "092347.468000", "092427.411000", "092427.413000", "092427.416000", "092427.418000", "092427.420000", "092427.423000", "092427.425000", "092427.428000", "092427.430000", "092427.432000", "092427.435000", "092427.437000", "092427.440000", "092427.442000", "092427.444000", "092427.447000", "092427.449000", "092427.452000", "092427.454000", "092427.456000", "092444.788000", "092444.791000", "092444.793000", "092444.796000", "092444.799000", "092444.801000", "092444.804000", "092444.807000", "092444.809000"],
      "InstanceNumber": [1, 2, 3, 4, 5, 6, 7, 8, 9, 10, 11, 12, 13, 14, 15, 16, 17, 18, 19, 20, 21, 22, 23, 24, 25, 26, 27, 28, 29, 30, 31, 32, 33, 34, 35, 36, 37, 38, 39, 40, 41, 42, 43, 44, 45, 46, 47, 48, 49, 50, 51, 52, 53, 54, 55, 56, 57, 58, 59, 60, 61, 62, 63, 64, 65, 66, 67, 68, 69, 70, 71, 72, 73, 74, 75, 76, 77, 78, 79, 80, 81, 82, 83, 84, 85, 86, 87, 88, 89, 90, 91, 92, 93, 94, 95, 96, 97, 98, 99, 100, 101, 102, 103, 104, 105, 106, 107, 108, 109, 110, 111, 112, 113, 114, 115, 116, 117, 118, 119, 120, 121, 122, 123, 124, 125, 126, 127, 128, 129, 130, 131, 132, 133, 134, 135, 136, 137, 138, 139, 140, 141, 142, 143, 144, 145, 146, 147, 148, 149, 150, 151, 152, 153, 154, 155, 156, 157, 158, 159, 160, 161, 162, 163, 164, 165, 166, 167, 168, 169, 170, 171, 172, 173, 174, 175, 176, 177, 178, 179, 180, 181, 182, 183, 184, 185, 186, 187, 188, 189, 190, 191, 192, 193, 194, 195, 196, 197, 198, 199, 200, 201, 202, 203, 204, 205, 206, 207, 208, 209, 210, 211, 212, 213, 214, 215, 216, 217, 218, 219, 220, 221, 222, 223, 224, 225, 226, 227, 228, 229, 230, 231, 232, 233, 234, 235, 236, 237],
      "LargestImagePixelValue": [2295, 1921, 1981, 2182, 1821, 1945, 1826, 1980, 2197, 1837, 2198, 1848, 2037, 1850, 2346, 1842, 2113, 1843, 2051, 1841, 1996, 1984, 1850, 1881, 1826, 1838, 2102, 1844, 1954, 2143, 1849, 2000, 2120, 1859, 1858, 2138, 1846, 1942, 2099, 1845, 1955, 1838, 1846, 2033, 1842, 1851, 1955, 1840, 1843, 2099, 1842, 1913, 1928, 1843, 1988, 1844, 1901, 2034, 1841, 1877, 1833, 2065, 1839, 1834, 2014, 1841, 1836, 1878, 1899, 1833, 1871, 1835, 1839, 1973, 2015, 1840, 1839, 1847, 1840, 1989, 1843, 1848, 2174, 1840, 1840, 2003, 2001, 1848, 1847, 1857, 1848, 1871, 2170, 1843, 1894, 1992, 1844, 1849, 1994, 1838, 1845, 2087, 1840, 1851, 1840, 1829, 1908, 1835, 1843, 2002, 1837, 1848, 2090, 1848, 1910, 2061, 1849, 1845, 2026, 1848, 1849, 2064, 1850, 1897, 1841, 1846, 2032, 1840, 1844, 1837, 1854, 1867, 1850, 1855, 2062, 1848, 1858, 2081, 1842, 1842, 2008, 1842, 1919, 1854, 1841, 2036, 1850, 1844, 2003, 1857, 1857, 2090, 1855, 2005, 1842, 1923, 1998, 1844, 1839, 1839, 1845, 1913, 1849, 1839, 2068, 1849, 1839, 1834, 1831, 2068, 1841, 1842, 1836, 1845, 2143, 1839, 1932, 1828, 1835, 1891, 1841, 1902, 1843, 1849, 1845, 1992, 2238, 1827, 1843, 1855, 1843, 1854, 1975, 1863, 1866, 2028, 1847, 1898, 2078, 1849, 1852, 1941, 1862, 1850, 1919, 1849, 1838, 1845, 1890, 1861, 1864, 1856, 1842, 1836, 1936, 1845, 1846, 1905, 1856, 1849, 1844, 1850, 2007, 1845, 1843, 1961, 1842, 1835, 1844, 1840, 1916, 1854, 1863, 1868, 1860, 1936, 1846],
      "WindowCenter": [698.0, 694.0, 694.0, 694.0, 694.0, 695.0, 697.0, 698.0, 699.0, 698.0, 700.0, 699.0, 700.0, 699.0, 700.0, 698.0, 698.0, 697.0, 697.0, 697.0, 697.0, 697.0, 697.0, 696.0, 697.0, 697.0, 698.0, 698.0, 698.0, 698.0, 698.0, 698.0, 698.0, 697.0, 696.0, 698.0, 698.0, 697.0, 698.0, 697.0, 697.0, 696.0, 697.0, 697.0, 696.0, 697.0, 697.0, 697.0, 697.0, 698.0, 698.0, 697.0, 698.0, 697.0, 698.0, 697.0, 697.0, 698.0, 697.0, 696.0, 696.0, 698.0, 697.0, 696.0, 697.0, 697.0, 697.0, 697.0, 697.0, 697.0, 697.0, 697.0, 696.0, 697.0, 697.0, 697.0, 697.0, 696.0, 696.0, 697.0, 697.0, 697.0, 697.0, 696.0, 697.0, 697.0, 696.0, 697.0, 697.0, 698.0, 698.0, 697.0, 698.0, 696.0, 697.0, 697.0, 695.0, 697.0, 697.0, 697.0, 697.0, 698.0, 696.0, 696.0, 696.0, 697.0, 698.0, 698.0, 697.0, 696.0, 696.0, 697.0, 697.0, 697.0, 697.0, 697.0, 696.0, 696.0, 697.0, 697.0, 698.0, 698.0, 697.0, 697.0, 698.0, 697.0, 697.0, 697.0, 697.0, 698.0, 698.0, 697.0, 697.0, 698.0, 698.0, 697.0, 697.0, 697.0, 696.0, 696.0, 697.0, 697.0, 697.0, 696.0, 697.0, 698.0, 698.0, 697.0, 697.0, 697.0, 697.0, 697.0, 697.0, 696.0, 697.0, 697.0, 697.0, 697.0, 697.0, 697.0, 698.0, 697.0, 698.0, 697.0, 697.0, 697.0, 697.0, 697.0, 697.0, 698.0, 697.0, 697.0, 697.0, 697.0, 698.0, 696.0, 697.0, 696.0, 696.0, 696.0, 697.0, 697.0, 698.0, 697.0, 698.0, 698.0, 697.0, 696.0, 696.0, 696.0, 696.0, 697.0, 699.0, 699.0, 698.0, 698.0, 697.0, 697.0, 698.0, 696.0, 696.0, 697.0, 697.0, 697.0, 697.0, 696.0, 697.0, 697.0, 698.0, 696.0, 697.0, 697.0, 698.0, 698.0, 697.0, 697.0, 697.0, 697.0, 698.0, 696.0, 697.0, 697.0, 697.0, 696.0, 696.0, 697.0, 696.0, 696.0, 695.0, 696.0, 697.0, 696.0, 697.0, 698.0, 698.0, 697.0, 696.0],
      "WindowWidth": [1566.0, 1552.0, 1551.0, 1554.0, 1553.0, 1557.0, 1560.0, 1564.0, 1568.0, 1565.0, 1573.0, 1570.0, 1573.0, 1568.0, 1572.0, 1564.0, 1566.0, 1562.0, 1564.0, 1561.0, 1562.0, 1562.0, 1561.0, 1560.0, 1562.0, 1562.0, 1566.0, 1566.0, 1565.0, 1567.0, 1564.0, 1565.0, 1566.0, 1562.0, 1560.0, 1566.0, 1565.0, 1564.0, 1566.0, 1562.0, 1563.0, 1561.0, 1561.0, 1562.0, 1560.0, 1561.0, 1562.0, 1561.0, 1563.0, 1565.0, 1563.0, 1563.0, 1564.0, 1562.0, 1566.0, 1564.0, 1563.0, 1564.0, 1561.0, 1560.0, 1559.0, 1565.0, 1561.0, 1560.0, 1563.0, 1560.0, 1563.0, 1562.0, 1562.0, 1562.0, 1562.0, 1563.0, 1560.0, 1561.0, 1561.0, 1561.0, 1560.0, 1559.0, 1560.0, 1563.0, 1561.0, 1560.0, 1563.0, 1560.0, 1560.0, 1561.0, 1560.0, 1561.0, 1563.0, 1564.0, 1563.0, 1562.0, 1565.0, 1560.0, 1560.0, 1561.0, 1558.0, 1561.0, 1563.0, 1562.0, 1561.0, 1564.0, 1560.0, 1559.0, 1560.0, 1563.0, 1564.0, 1564.0, 1561.0, 1560.0, 1560.0, 1560.0, 1565.0, 1561.0, 1561.0, 1562.0, 1558.0, 1559.0, 1562.0, 1561.0, 1563.0, 1565.0, 1562.0, 1563.0, 1564.0, 1562.0, 1563.0, 1561.0, 1561.0, 1563.0, 1564.0, 1563.0, 1563.0, 1564.0, 1564.0, 1562.0, 1561.0, 1562.0, 1559.0, 1557.0, 1562.0, 1562.0, 1562.0, 1559.0, 1562.0, 1564.0, 1563.0, 1561.0, 1563.0, 1561.0, 1561.0, 1564.0, 1561.0, 1561.0, 1561.0, 1561.0, 1561.0, 1561.0, 1562.0, 1563.0, 1563.0, 1563.0, 1563.0, 1562.0, 1563.0, 1561.0, 1562.0, 1563.0, 1562.0, 1564.0, 1562.0, 1561.0, 1562.0, 1561.0, 1564.0, 1560.0, 1562.0, 1558.0, 1556.0, 1559.0, 1561.0, 1561.0, 1565.0, 1563.0, 1564.0, 1564.0, 1563.0, 1557.0, 1557.0, 1557.0, 1559.0, 1561.0, 1568.0, 1568.0, 1564.0, 1566.0, 1562.0, 1562.0, 1564.0, 1558.0, 1559.0, 1560.0, 1561.0, 1561.0, 1560.0, 1558.0, 1560.0, 1561.0, 1564.0, 1559.0, 1562.0, 1561.0, 1564.0, 1564.0, 1563.0, 1560.0, 1560.0, 1563.0, 1563.0, 1560.0, 1562.0, 1560.0, 1561.0, 1558.0, 1558.0, 1561.0, 1559.0, 1558.0, 1557.0, 1557.0, 1560.0, 1558.0, 1561.0, 1563.0, 1563.0, 1562.0, 1560.0]
    },
    "slices": {}
  }
}