{
  "AcquisitionMatrixPE": 70,
  "AcquisitionNumber": 1,
  "AcquisitionTime": "09:38:27.737500",
  "BandwidthPerPixelPhaseEncode": 38.873,
  "BaseResolution": 70,
  "BodyPartExamined": "HEAD",
  "ConsistencyInfo": "N4_VE11B_LATEST_20150530",
  "ConversionSoftware": "dcm2niix",
  "ConversionSoftwareVersion": "v1.0.20190410  GCC6.3.0",
  "DerivedVendorReportedEchoSpacing": 0.000489996,
  "DeviceSerialNumber": "66088",
  "DwellTime": 2.9e-06,
  "EchoTime": 0.03,
  "EchoTrainLength": 53,
  "EffectiveEchoSpacing": 0.000367497,
  "FlipAngle": 90,
  "ImageOrientationPatientDICOM": [0.999944, -0.0100919, -0.00309521, 0.00872642, 0.955289, -0.295545],
  "ImageType": [
    "ORIGINAL",
    "PRIMARY",
    "M",
    "ND",
    "NORM",
    "MOSAIC"
],
  "ImagingFrequency": 123.191,
  "InPlanePhaseEncodingDirectionDICOM": "COL",
  "InstitutionAddress": "Street_StreetNo_City_District_IR_ZIP",
  "InstitutionName": "Hospital",
  "InstitutionalDepartmentName": "Department",
  "MRAcquisitionType": "2D",
  "MagneticFieldStrength": 3,
  "Manufacturer": "Siemens",
  "ManufacturersModelName": "Prisma",
  "Modality": "MR",
  "ParallelReductionFactorInPlane": 2,
  "PartialFourier": 1,
  "PatientPosition": "HFS",
  "PercentPhaseFOV": 100,
  "PhaseEncodingDirection": "j-",
  "PhaseEncodingSteps": 105,
  "PhaseOversampling": 0.5,
  "PhaseResolution": 1,
  "PixelBandwidth": 2465,
  "ProcedureStepDescription": "NBML_Project_P-96169_Ebrahiminiya-Khaliq",
  "ProtocolName": "ep2d_p2_Task_3.5_measurment:237",
  "PulseSequenceDetails": "%SiemensSeq%_ep2d_pace",
  "ReceiveCoilActiveElements": "HC1-7",
  "ReceiveCoilName": "HeadNeck_64",
  "ReconMatrixPE": 70,
  "RefLinesPE": 24,
  "RepetitionTime": 2,
  "SAR": 0.0858195,
  "ScanOptions": "FS",
  "ScanningSequence": "EP",
  "SequenceName": "_epfid2d1_70",
  "SequenceVariant": "SK_OSP",
  "SeriesDescription": "ep2d_p2_Task_3.5_measurment:237",
  "SeriesNumber": 7,
  "ShimSetting": [2603, -4489, -3258, 374, 35, 68, 14, 21],
  "SliceThickness": 3.5,
  "SliceTiming": [0.99, 0, 1.0475, 0.0575, 1.105, 0.1175, 1.165, 0.175, 1.2225, 0.2325, 1.28, 0.29, 1.34, 0.35, 1.3975, 0.4075, 1.455, 0.465, 1.515, 0.525, 1.5725, 0.5825, 1.63, 0.64, 1.6875, 0.6975, 1.7475, 0.7575, 1.805, 0.815, 1.8625, 0.8725, 1.9225, 0.9325],
  "SoftwareVersions": "syngo_MR_E11",
  "SpacingBetweenSlices": 3.85,
  "StationName": "AWP66088",
  "TaskName": "categorySelectivity",
  "TotalReadoutTime": 0.0253573,
  "TxRefAmp": 230.304,
  "dcmmeta_affine": [
    [-3.5426597595214844, 0.030916452407836914, -0.022866854444146156, 122.28917694091797],
    [0.0357542559504509, 3.3844523429870605, -1.1376806497573853, -86.35160064697266],
    [-0.010965904220938683, 1.0470736026763916, 3.6779966354370117, -69.99176788330078],
    [0.0, 0.0, 0.0, 1.0]
],
  "dcmmeta_reorient_transform": [
    [0.0, -1.0, 0.0, 69.0],
    [1.0, 0.0, 0.0, 0.0],
    [0.0, 0.0, 1.0, 0.0],
    [0.0, 0.0, 0.0, 1.0]
],
  "dcmmeta_shape": [70, 70, 34, 237],
  "dcmmeta_slice_dim": 2,
  "dcmmeta_version": 0.6,
  "global": {
    "const": {
      "AcquisitionMatrix": [70, 0, 0, 70],
      "AngioFlag": "N",
      "BitsAllocated": 16,
      "BitsStored": 12,
      "BodyPartExamined": "HEAD",
      "Columns": 420,
      "EchoNumbers": 1,
      "EchoTime": 30.0,
      "EchoTrainLength": 53,
      "FlipAngle": 90.0,
      "HighBit": 11,
      "ImageOrientationPatient": [0.99994428477258, -0.0100919272664, -0.0030952148061, 0.00872641791144, 0.95528897507964, -0.2955449605758],
      "ImagePositionPatient": [-749.79825301008, -733.19778512894, 187.41321818784],
      "ImageType": [
        "ORIGINAL",
        "PRIMARY",
        "M",
        "ND",
        "NORM",
        "MOSAIC"
],
      "ImagedNucleus": "1H",
      "ImagingFrequency": 123.19119,
      "InPlanePhaseEncodingDirection": "COL",
      "MRAcquisitionType": "2D",
      "MagneticFieldStrength": 3.0,
      "Manufacturer": "SIEMENS",
      "ManufacturerModelName": "Prisma",
      "Modality": "MR",
      "NumberOfAverages": 1.0,
      "NumberOfPhaseEncodingSteps": 105,
      "PercentPhaseFieldOfView": 100.0,
      "PercentSampling": 100.0,
      "PerformedProcedureStepStartTime": "084252.910000",
      "PhotometricInterpretation": "MONOCHROME2",
      "PixelBandwidth": 2465.0,
      "PixelRepresentation": 0,
      "PixelSpacing": [3.542857170105, 3.542857170105],
      "ProtocolName": "ep2d_p2_Task_3.5_measurment:237",
      "RepetitionTime": 2000.0,
      "Rows": 420,
      "SAR": 0.08581947552585,
      "SamplesPerPixel": 1,
      "ScanOptions": "FS",
      "ScanningSequence": "EP",
      "SequenceName": "*epfid2d1_70",
      "SequenceVariant": [
        "SK",
        "OSP"
],
      "SeriesDescription": "ep2d_p2_Task_3.5_measurment:237",
      "SeriesNumber": 7,
      "SeriesTime": "093920.560000",
      "SliceLocation": -42.074106472858,
      "SliceThickness": 3.5,
      "SmallestImagePixelValue": 0,
      "SoftwareVersions": "syngo MR E11",
      "SpacingBetweenSlices": 3.8499999490272,
      "SpecificCharacterSet": "ISO_IR 100",
      "StudyID": "1",
      "StudyTime": "084252.759000",
      "TransmitCoilName": "Body",
      "VariableFlipAngleFlag": "N",
      "WindowCenterWidthExplanation": "Algo1",
      "dBdt": 0.0},
    "slices": {}
  },
  "time": {
    "samples": {
      "AcquisitionNumber": [1, 2, 3, 4, 5, 6, 7, 8, 9, 10, 11, 12, 13, 14, 15, 16, 17, 18, 19, 20, 21, 22, 23, 24, 25, 26, 27, 28, 29, 30, 31, 32, 33, 34, 35, 36, 37, 38, 39, 40, 41, 42, 43, 44, 45, 46, 47, 48, 49, 50, 51, 52, 53, 54, 55, 56, 57, 58, 59, 60, 61, 62, 63, 64, 65, 66, 67, 68, 69, 70, 71, 72, 73, 74, 75, 76, 77, 78, 79, 80, 81, 82, 83, 84, 85, 86, 87, 88, 89, 90, 91, 92, 93, 94, 95, 96, 97, 98, 99, 100, 101, 102, 103, 104, 105, 106, 107, 108, 109, 110, 111, 112, 113, 114, 115, 116, 117, 118, 119, 120, 121, 122, 123, 124, 125, 126, 127, 128, 129, 130, 131, 132, 133, 134, 135, 136, 137, 138, 139, 140, 141, 142, 143, 144, 145, 146, 147, 148, 149, 150, 151, 152, 153, 154, 155, 156, 157, 158, 159, 160, 161, 162, 163, 164, 165, 166, 167, 168, 169, 170, 171, 172, 173, 174, 175, 176, 177, 178, 179, 180, 181, 182, 183, 184, 185, 186, 187, 188, 189, 190, 191, 192, 193, 194, 195, 196, 197, 198, 199, 200, 201, 202, 203, 204, 205, 206, 207, 208, 209, 210, 211, 212, 213, 214, 215, 216, 217, 218, 219, 220, 221, 222, 223, 224, 225, 226, 227, 228, 229, 230, 231, 232, 233, 234, 235, 236, 237],
      "AcquisitionTime": ["093827.737500", "093829.737500", "093831.737500", "093833.737500", "093835.737500", "093837.737500", "093839.737500", "093841.737500", "093843.737500", "093845.737500", "093847.737500", "093849.737500", "093851.737500", "093853.737500", "093855.737500", "093857.737500", "093859.737500", "093901.737500", "093903.737500", "093905.737500", "093907.737500", "093909.737500", "093911.737500", "093913.737500", "093915.737500", "093917.737500", "093919.737500", "093921.737500", "093923.737500", "093925.737500", "093927.737500", "093929.737500", "093931.737500", "093933.737500", "093935.737500", "093937.737500", "093939.737500", "093941.737500", "093943.737500", "093945.737500", "093947.737500", "093949.737500", "093951.737500", "093953.737500", "093955.737500", "093957.737500", "093959.737500", "094001.737500", "094003.737500", "094005.737500", "094007.737500", "094009.737500", "094011.737500", "094013.737500", "094015.737500", "094017.737500", "094019.737500", "094021.737500", "094023.737500", "094025.737500", "094027.737500", "094029.737500", "094031.737500", "094033.737500", "094035.737500", "094037.737500", "094039.737500", "094041.737500", "094043.737500", "094045.737500", "094047.737500", "094049.737500", "094051.737500", "094053.737500", "094055.737500", "094057.737500", "094059.737500", "094101.737500", "094103.737500", "094105.737500", "094107.737500", "094109.737500", "094111.737500", "094113.737500", "094115.737500", "094117.737500", "094119.737500", "094121.737500", "094123.737500", "094125.737500", "094127.737500", "094129.737500", "094131.737500", "094133.737500", "094135.737500", "094137.737500", "094139.737500", "094141.737500", "094143.737500", "094145.737500", "094147.737500", "094149.737500", "094151.737500", "094153.737500", "094155.737500", "094157.737500", "094159.737500", "094201.737500", "094203.737500", "094205.737500", "094207.737500", "094209.737500", "094211.737500", "094213.737500", "094215.737500", "094217.737500", "094219.737500", "094221.737500", "094223.737500", "094225.737500", "094227.737500", "094229.737500", "094231.737500", "094233.737500", "094235.737500", "094237.737500", "094239.737500", "094241.737500", "094243.737500", "094245.737500", "094247.737500", "094249.737500", "094251.737500", "094253.737500", "094255.737500", "094257.737500", "094259.737500", "094301.737500", "094303.737500", "094305.737500", "094307.737500", "094309.737500", "094311.737500", "094313.737500", "094315.737500", "094317.737500", "094319.737500", "094321.737500", "094323.737500", "094325.737500", "094327.737500", "094329.737500", "094331.737500", "094333.737500", "094335.737500", "094337.737500", "094339.737500", "094341.737500", "094343.737500", "094345.737500", "094347.737500", "094349.737500", "094351.737500", "094353.737500", "094355.737500", "094357.737500", "094359.737500", "094401.737500", "094403.737500", "094405.737500", "094407.737500", "094409.737500", "094411.737500", "094413.737500", "094415.737500", "094417.737500", "094419.737500", "094421.737500", "094423.737500", "094425.737500", "094427.737500", "094429.737500", "094431.737500", "094433.737500", "094435.737500", "094437.737500", "094439.737500", "094441.737500", "094443.737500", "094445.737500", "094447.737500", "094449.737500", "094451.737500", "094453.737500", "094455.737500", "094457.737500", "094459.737500", "094501.737500", "094503.737500", "094505.737500", "094507.737500", "094509.737500", "094511.737500", "094513.737500", "094515.737500", "094517.737500", "094519.737500", "094521.737500", "094523.737500", "094525.737500", "094527.737500", "094529.737500", "094531.737500", "094533.737500", "094535.737500", "094537.737500", "094539.737500", "094541.737500", "094543.737500", "094545.737500", "094547.737500", "094549.737500", "094551.737500", "094553.737500", "094555.737500", "094557.737500", "094559.737500", "094601.737500", "094603.737500", "094605.737500", "094607.737500", "094609.737500", "094611.737500", "094613.737500", "094615.737500", "094617.737500", "094619.737500"],
      "ContentTime": ["093920.567000", "093920.571000", "093920.574000", "093920.577000", "093920.581000", "093920.584000", "093920.587000", "093920.590000", "093920.593000", "093920.596000", "093920.599000", "093920.602000", "093920.606000", "093920.617000", "093920.620000", "093920.623000", "093920.626000", "093920.629000", "093920.632000", "093920.636000", "093920.639000", "093920.642000", "093920.645000", "093920.648000", "093920.651000", "093920.655000", "094000.554000", "094000.557000", "094000.560000", "094000.564000", "094000.567000", "094000.570000", "094000.573000", "094000.576000", "094000.579000", "094000.582000", "094000.586000", "094000.589000", "094000.592000", "094000.595000", "094000.598000", "094000.602000", "094000.605000", "094000.608000", "094000.611000", "094000.614000", "094040.556000", "094040.570000", "094040.573000", "094040.576000", "094040.579000", "094040.583000", "094040.586000", "094040.589000", "094040.592000", "094040.595000", "094040.599000", "094040.603000", "094040.606000", "094040.609000", "094040.613000", "094040.616000", "094040.619000", "094040.632000", "094040.636000", "094040.639000", "094120.559000", "094120.562000", "094120.565000", "094120.569000", "094120.572000", "094120.575000", "094120.578000", "094120.581000", "094120.584000", "094120.587000", "094120.590000", "094120.593000", "094120.597000", "094120.600000", "094120.603000", "094120.606000", "094120.609000", "094120.612000", "094120.615000", "094120.618000", "094200.554000", "094200.557000", "094200.561000", "094200.564000", "094200.567000", "094200.570000", "094200.574000", "094200.577000", "094200.580000", "094200.583000", "094200.586000", "094200.589000", "094200.593000", "094200.596000", "094200.599000", "094200.602000", "094200.605000", "094200.609000", "094200.612000", "094200.615000", "094240.554000", "094240.557000", "094240.561000", "094240.564000", "094240.567000", "094240.570000", "094240.573000", "094240.576000", "094240.580000", "094240.583000", "094240.586000", "094240.589000", "094240.592000", "094240.595000", "094240.599000", "094240.602000", "094240.605000", "094240.608000", "094240.611000", "094240.614000", "094320.554000", "094320.557000", "094320.561000", "094320.564000", "094320.567000", "094320.570000", "094320.573000", "094320.576000", "094320.579000", "094320.582000", "094320.587000", "094320.590000", "094320.593000", "094320.597000", "094320.600000", "094320.603000", "094320.606000", "094320.609000", "094320.612000", "094320.615000", "094400.555000", "094400.558000", "094400.562000", "094400.565000", "094400.568000", "094400.571000", "094400.574000", "094400.578000", "094400.581000", "094400.584000", "094400.587000", "094400.591000", "094400.594000", "094400.597000", "094400.601000", "094400.604000", "094400.607000", "094400.611000", "094400.614000", "094400.617000", "094440.554000", "094440.558000", "094440.561000", "094440.565000", "094440.568000", "094440.571000", "094440.575000", "094440.578000", "094440.581000", "094440.585000", "094440.588000", "094440.591000", "094440.594000", "094440.598000", "094440.601000", "094440.604000", "094440.607000", "094440.610000", "094440.614000", "094440.617000", "094520.554000", "094520.558000", "094520.566000", "094520.569000", "094520.572000", "094520.575000", "094520.578000", "094520.581000", "094520.585000", "094520.588000", "094520.600000", "094520.603000", "094520.606000", "094520.609000", "094520.613000", "094520.616000", "094520.619000", "094520.622000", "094520.625000", "094520.628000", "094600.555000", "094600.558000", "094600.561000", "094600.565000", "094600.568000", "094600.571000", "094600.574000", "094600.577000", "094600.581000", "094600.584000", "094600.587000", "094600.590000", "094600.593000", "094600.597000", "094600.600000", "094600.603000", "094600.606000", "094600.609000", "094600.613000", "094600.616000", "094621.294000", "094621.298000", "094621.301000", "094621.304000", "094621.307000", "094621.310000", "094621.313000", "094621.317000", "094621.321000", "094621.324000", "094621.328000"],
      "InstanceCreationTime": ["093920.567000", "093920.571000", "093920.574000", "093920.577000", "093920.581000", "093920.584000", "093920.587000", "093920.590000", "093920.593000", "093920.596000", "093920.599000", "093920.602000", "093920.606000", "093920.617000", "093920.620000", "093920.623000", "093920.626000", "093920.629000", "093920.632000", "093920.636000", "093920.639000", "093920.642000", "093920.645000", "093920.648000", "093920.651000", "093920.655000", "094000.554000", "094000.557000", "094000.560000", "094000.564000", "094000.567000", "094000.570000", "094000.573000", "094000.576000", "094000.579000", "094000.582000", "094000.586000", "094000.589000", "094000.592000", "094000.595000", "094000.598000", "094000.602000", "094000.605000", "094000.608000", "094000.611000", "094000.614000", "094040.556000", "094040.570000", "094040.573000", "094040.576000", "094040.579000", "094040.583000", "094040.586000", "094040.589000", "094040.592000", "094040.595000", "094040.599000", "094040.603000", "094040.606000", "094040.609000", "094040.613000", "094040.616000", "094040.619000", "094040.632000", "094040.636000", "094040.639000", "094120.559000", "094120.562000", "094120.565000", "094120.569000", "094120.572000", "094120.575000", "094120.578000", "094120.581000", "094120.584000", "094120.587000", "094120.590000", "094120.593000", "094120.597000", "094120.600000", "094120.603000", "094120.606000", "094120.609000", "094120.612000", "094120.615000", "094120.618000", "094200.554000", "094200.557000", "094200.561000", "094200.564000", "094200.567000", "094200.570000", "094200.574000", "094200.577000", "094200.580000", "094200.583000", "094200.586000", "094200.589000", "094200.593000", "094200.596000", "094200.599000", "094200.602000", "094200.605000", "094200.609000", "094200.612000", "094200.615000", "094240.554000", "094240.557000", "094240.561000", "094240.564000", "094240.567000", "094240.570000", "094240.573000", "094240.576000", "094240.580000", "094240.583000", "094240.586000", "094240.589000", "094240.592000", "094240.595000", "094240.599000", "094240.602000", "094240.605000", "094240.608000", "094240.611000", "094240.614000", "094320.554000", "094320.557000", "094320.561000", "094320.564000", "094320.567000", "094320.570000", "094320.573000", "094320.576000", "094320.579000", "094320.582000", "094320.587000", "094320.590000", "094320.593000", "094320.597000", "094320.600000", "094320.603000", "094320.606000", "094320.609000", "094320.612000", "094320.615000", "094400.555000", "094400.558000", "094400.562000", "094400.565000", "094400.568000", "094400.571000", "094400.574000", "094400.578000", "094400.581000", "094400.584000", "094400.587000", "094400.591000", "094400.594000", "094400.597000", "094400.601000", "094400.604000", "094400.607000", "094400.611000", "094400.614000", "094400.617000", "094440.554000", "094440.558000", "094440.561000", "094440.565000", "094440.568000", "094440.571000", "094440.575000", "094440.578000", "094440.581000", "094440.585000", "094440.588000", "094440.591000", "094440.594000", "094440.598000", "094440.601000", "094440.604000", "094440.607000", "094440.610000", "094440.614000", "094440.617000", "094520.554000", "094520.558000", "094520.566000", "094520.569000", "094520.572000", "094520.575000", "094520.578000", "094520.581000", "094520.585000", "094520.588000", "094520.600000", "094520.603000", "094520.606000", "094520.609000", "094520.613000", "094520.616000", "094520.619000", "094520.622000", "094520.625000", "094520.628000", "094600.555000", "094600.558000", "094600.561000", "094600.565000", "094600.568000", "094600.571000", "094600.574000", "094600.577000", "094600.581000", "094600.584000", "094600.587000", "094600.590000", "094600.593000", "094600.597000", "094600.600000", "094600.603000", "094600.606000", "094600.609000", "094600.613000", "094600.616000", "094621.294000", "094621.298000", "094621.301000", "094621.304000", "094621.307000", "094621.310000", "094621.313000", "094621.317000", "094621.321000", "094621.324000", "094621.328000"],
      "InstanceNumber": [1, 2, 3, 4, 5, 6, 7, 8, 9, 10, 11, 12, 13, 14, 15, 16, 17, 18, 19, 20, 21, 22, 23, 24, 25, 26, 27, 28, 29, 30, 31, 32, 33, 34, 35, 36, 37, 38, 39, 40, 41, 42, 43, 44, 45, 46, 47, 48, 49, 50, 51, 52, 53, 54, 55, 56, 57, 58, 59, 60, 61, 62, 63, 64, 65, 66, 67, 68, 69, 70, 71, 72, 73, 74, 75, 76, 77, 78, 79, 80, 81, 82, 83, 84, 85, 86, 87, 88, 89, 90, 91, 92, 93, 94, 95, 96, 97, 98, 99, 100, 101, 102, 103, 104, 105, 106, 107, 108, 109, 110, 111, 112, 113, 114, 115, 116, 117, 118, 119, 120, 121, 122, 123, 124, 125, 126, 127, 128, 129, 130, 131, 132, 133, 134, 135, 136, 137, 138, 139, 140, 141, 142, 143, 144, 145, 146, 147, 148, 149, 150, 151, 152, 153, 154, 155, 156, 157, 158, 159, 160, 161, 162, 163, 164, 165, 166, 167, 168, 169, 170, 171, 172, 173, 174, 175, 176, 177, 178, 179, 180, 181, 182, 183, 184, 185, 186, 187, 188, 189, 190, 191, 192, 193, 194, 195, 196, 197, 198, 199, 200, 201, 202, 203, 204, 205, 206, 207, 208, 209, 210, 211, 212, 213, 214, 215, 216, 217, 218, 219, 220, 221, 222, 223, 224, 225, 226, 227, 228, 229, 230, 231, 232, 233, 234, 235, 236, 237],
      "LargestImagePixelValue": [1859, 1856, 1975, 1869, 1928, 1805, 1878, 1812, 1816, 2028, 1814, 2263, 1955, 1807, 1814, 1817, 1842, 1860, 1804, 1804, 1878, 1814, 1816, 1811, 1908, 1837, 1805, 1813, 1911, 1822, 1835, 1928, 1817, 1820, 1919, 1819, 1819, 1926, 1939, 1814, 1829, 1985, 1812, 1818, 2076, 1818, 1864, 1897, 1811, 1810, 1931, 1801, 1815, 1805, 1809, 1929, 1806, 1805, 1884, 1804, 1805, 1853, 1807, 1898, 1941, 1803, 1843, 1831, 1808, 1821, 1815, 1827, 2074, 1821, 1858, 1876, 1821, 1911, 1810, 1811, 1821, 2091, 1804, 2089, 2138, 1804, 1807, 1842, 1806, 1813, 1948, 1804, 1808, 1890, 1829, 1821, 1878, 1816, 1818, 1858, 1858, 1891, 2197, 1819, 1831, 1835, 1849, 1841, 1901, 2192, 1835, 1837, 1840, 1898, 1842, 1834, 1854, 1842, 1854, 1952, 1836, 1837, 1840, 1846, 1838, 1838, 1832, 1834, 1838, 1838, 1846, 1838, 1864, 1852, 1841, 1854, 1975, 1837, 1845, 1845, 1839, 1843, 1838, 1836, 1830, 1844, 1836, 1838, 1826, 1828, 1853, 1828, 1822, 1845, 1820, 1895, 1821, 1821, 1815, 1810, 1803, 1949, 1808, 1820, 1827, 1815, 1821, 2094, 1821, 1809, 1873, 1805, 1805, 1816, 1813, 1826, 1807, 1816, 1819, 1810, 1818, 1814, 1808, 1823, 1815, 1820, 1817, 1816, 1819, 1817, 1818, 1848, 1911, 1822, 1810, 1814, 1815, 1829, 1814, 1822, 1912, 1905, 1854, 1823, 1840, 2129, 1823, 1814, 1828, 1850, 1833, 1831, 1880, 1851, 1875, 1880, 1874, 1860, 1872, 1879, 1843, 1909, 1888, 1876, 1880, 1866, 1879, 1877, 1871, 1893, 1887, 1870, 1851, 1882, 1854, 1866, 1900],
      "WindowCenter": [696.0, 696.0, 698.0, 698.0, 697.0, 696.0, 697.0, 696.0, 697.0, 698.0, 699.0, 697.0, 695.0, 695.0, 695.0, 695.0, 695.0, 695.0, 695.0, 695.0, 696.0, 696.0, 696.0, 695.0, 696.0, 696.0, 696.0, 696.0, 696.0, 696.0, 696.0, 697.0, 697.0, 697.0, 697.0, 696.0, 697.0, 696.0, 696.0, 696.0, 696.0, 696.0, 696.0, 696.0, 696.0, 696.0, 695.0, 696.0, 696.0, 697.0, 696.0, 696.0, 695.0, 696.0, 696.0, 696.0, 695.0, 695.0, 696.0, 694.0, 695.0, 696.0, 696.0, 696.0, 696.0, 696.0, 696.0, 696.0, 696.0, 695.0, 697.0, 696.0, 697.0, 696.0, 695.0, 695.0, 695.0, 696.0, 695.0, 695.0, 696.0, 697.0, 695.0, 696.0, 695.0, 693.0, 693.0, 694.0, 695.0, 696.0, 697.0, 696.0, 697.0, 696.0, 696.0, 696.0, 696.0, 696.0, 695.0, 695.0, 696.0, 696.0, 697.0, 696.0, 695.0, 696.0, 696.0, 697.0, 698.0, 697.0, 695.0, 694.0, 695.0, 696.0, 697.0, 696.0, 697.0, 696.0, 696.0, 696.0, 696.0, 697.0, 696.0, 697.0, 697.0, 696.0, 696.0, 696.0, 697.0, 696.0, 696.0, 696.0, 695.0, 696.0, 696.0, 697.0, 696.0, 694.0, 695.0, 696.0, 697.0, 697.0, 697.0, 696.0, 697.0, 696.0, 696.0, 696.0, 696.0, 697.0, 697.0, 696.0, 695.0, 696.0, 696.0, 696.0, 696.0, 695.0, 695.0, 696.0, 696.0, 696.0, 696.0, 695.0, 696.0, 697.0, 696.0, 697.0, 696.0, 695.0, 695.0, 696.0, 696.0, 696.0, 697.0, 696.0, 696.0, 695.0, 695.0, 696.0, 696.0, 695.0, 695.0, 695.0, 695.0, 696.0, 696.0, 696.0, 697.0, 697.0, 697.0, 697.0, 696.0, 696.0, 695.0, 695.0, 695.0, 697.0, 698.0, 699.0, 698.0, 696.0, 696.0, 696.0, 696.0, 696.0, 694.0, 694.0, 695.0, 695.0, 696.0, 695.0, 696.0, 696.0, 696.0, 696.0, 697.0, 696.0, 696.0, 696.0, 696.0, 697.0, 696.0, 697.0, 696.0, 697.0, 697.0, 696.0, 696.0, 696.0, 696.0, 695.0, 696.0, 696.0, 697.0, 698.0, 697.0],
      "WindowWidth": [1557.0, 1557.0, 1564.0, 1564.0, 1561.0, 1558.0, 1560.0, 1559.0, 1560.0, 1567.0, 1567.0, 1562.0, 1554.0, 1555.0, 1555.0, 1555.0, 1553.0, 1553.0, 1554.0, 1555.0, 1556.0, 1557.0, 1556.0, 1555.0, 1557.0, 1558.0, 1557.0, 1557.0, 1559.0, 1559.0, 1559.0, 1561.0, 1561.0, 1561.0, 1561.0, 1559.0, 1559.0, 1557.0, 1557.0, 1556.0, 1556.0, 1558.0, 1558.0, 1556.0, 1559.0, 1557.0, 1556.0, 1557.0, 1558.0, 1559.0, 1559.0, 1557.0, 1556.0, 1558.0, 1558.0, 1557.0, 1555.0, 1554.0, 1557.0, 1553.0, 1555.0, 1556.0, 1556.0, 1558.0, 1557.0, 1557.0, 1556.0, 1557.0, 1556.0, 1556.0, 1560.0, 1558.0, 1561.0, 1556.0, 1555.0, 1555.0, 1553.0, 1556.0, 1555.0, 1556.0, 1557.0, 1560.0, 1556.0, 1557.0, 1553.0, 1547.0, 1547.0, 1550.0, 1555.0, 1558.0, 1560.0, 1558.0, 1560.0, 1559.0, 1558.0, 1559.0, 1558.0, 1556.0, 1556.0, 1556.0, 1558.0, 1558.0, 1560.0, 1556.0, 1554.0, 1557.0, 1560.0, 1563.0, 1564.0, 1562.0, 1555.0, 1553.0, 1554.0, 1557.0, 1559.0, 1558.0, 1559.0, 1557.0, 1557.0, 1559.0, 1558.0, 1559.0, 1559.0, 1559.0, 1559.0, 1558.0, 1559.0, 1558.0, 1561.0, 1559.0, 1556.0, 1557.0, 1556.0, 1557.0, 1557.0, 1559.0, 1556.0, 1552.0, 1553.0, 1558.0, 1560.0, 1560.0, 1559.0, 1559.0, 1560.0, 1558.0, 1558.0, 1559.0, 1559.0, 1560.0, 1560.0, 1558.0, 1556.0, 1557.0, 1557.0, 1557.0, 1557.0, 1554.0, 1555.0, 1558.0, 1556.0, 1557.0, 1556.0, 1556.0, 1559.0, 1562.0, 1559.0, 1560.0, 1556.0, 1554.0, 1555.0, 1556.0, 1556.0, 1556.0, 1559.0, 1558.0, 1557.0, 1556.0, 1554.0, 1556.0, 1556.0, 1554.0, 1554.0, 1555.0, 1555.0, 1557.0, 1558.0, 1557.0, 1560.0, 1563.0, 1562.0, 1560.0, 1559.0, 1556.0, 1554.0, 1553.0, 1553.0, 1559.0, 1564.0, 1566.0, 1562.0, 1557.0, 1558.0, 1559.0, 1557.0, 1558.0, 1551.0, 1551.0, 1552.0, 1553.0, 1556.0, 1555.0, 1558.0, 1557.0, 1557.0, 1557.0, 1560.0, 1558.0, 1559.0, 1558.0, 1557.0, 1559.0, 1557.0, 1559.0, 1559.0, 1559.0, 1559.0, 1558.0, 1557.0, 1558.0, 1556.0, 1556.0, 1558.0, 1557.0, 1559.0, 1562.0, 1560.0]
    },
    "slices": {}
  }
}