{
  "AcquisitionMatrixPE": 70,
  "AcquisitionNumber": 1,
  "AcquisitionTime": "14:51:40.177500",
  "BandwidthPerPixelPhaseEncode": 38.873,
  "BaseResolution": 70,
  "BodyPartExamined": "HEAD",
  "ConsistencyInfo": "N4_VE11B_LATEST_20150530",
  "ConversionSoftware": "dcm2niix",
  "ConversionSoftwareVersion": "v1.0.20190410  GCC6.3.0",
  "DerivedVendorReportedEchoSpacing": 0.000489996,
  "DeviceSerialNumber": "66088",
  "DwellTime": 2.9e-06,
  "EchoTime": 0.03,
  "EchoTrainLength": 53,
  "EffectiveEchoSpacing": 0.000367497,
  "FlipAngle": 90,
  "ImageOrientationPatientDICOM": [0.996649, -0.0589471, 0.0567076, 0.076688, 0.914547, -0.397143],
  "ImageType": [
    "ORIGINAL",
    "PRIMARY",
    "M",
    "ND",
    "NORM",
    "MOSAIC"
],
  "ImagingFrequency": 123.191,
  "InPlanePhaseEncodingDirectionDICOM": "COL",
  "InstitutionAddress": "Street_StreetNo_City_District_IR_ZIP",
  "InstitutionName": "NBML",
  "InstitutionalDepartmentName": "Department",
  "MRAcquisitionType": "2D",
  "MagneticFieldStrength": 3,
  "Manufacturer": "Siemens",
  "ManufacturersModelName": "Prisma",
  "Modality": "MR",
  "ParallelReductionFactorInPlane": 2,
  "PartialFourier": 1,
  "PatientPosition": "HFS",
  "PercentPhaseFOV": 100,
  "PhaseEncodingDirection": "j-",
  "PhaseEncodingSteps": 105,
  "PhaseOversampling": 0.5,
  "PhaseResolution": 1,
  "PixelBandwidth": 2465,
  "ProcedureStepDescription": "NBML_Project_P_96169_Ebrahiminiya-Khaliq",
  "ProtocolName": "ep2d_p2_Task_3.5_measurment:237",
  "PulseSequenceDetails": "%SiemensSeq%_ep2d_pace",
  "ReceiveCoilActiveElements": "HC1-7;NC1",
  "ReceiveCoilName": "HeadNeck_64",
  "ReconMatrixPE": 70,
  "RefLinesPE": 24,
  "RepetitionTime": 2,
  "SAR": 0.0792012,
  "ScanOptions": "FS",
  "ScanningSequence": "EP",
  "SequenceName": "_epfid2d1_70",
  "SequenceVariant": "SK_OSP",
  "SeriesDescription": "ep2d_p2_Task_3.5_measurment:237",
  "SeriesNumber": 4,
  "ShimSetting": [2592, -4490, -3357, 281, 8, -102, -142, -41],
  "SliceThickness": 3.5,
  "SliceTiming": [0.99, 0, 1.05, 0.06, 1.1075, 0.1175, 1.165, 0.175, 1.225, 0.235, 1.2825, 0.2925, 1.34, 0.35, 1.3975, 0.4075, 1.4575, 0.4675, 1.515, 0.525, 1.5725, 0.5825, 1.6325, 0.6425, 1.69, 0.7, 1.7475, 0.7575, 1.805, 0.815, 1.865, 0.875, 1.9225, 0.9325],
  "SoftwareVersions": "syngo_MR_E11",
  "SpacingBetweenSlices": 3.85,
  "StationName": "AWP66088",
  "TaskName": "categorySelectivity",
  "TotalReadoutTime": 0.0253573,
  "TxRefAmp": 220.21,
  "dcmmeta_affine": [
    [-3.5309855937957764, 0.27169448137283325, 0.10953766107559204, 121.57103729248047],
    [0.20884127914905548, 3.2401092052459717, -1.5406213998794556, -97.56075286865234],
    [0.20090709626674652, 1.40702223777771, 3.526611328125, -90.68734741210938],
    [0.0, 0.0, 0.0, 1.0]
],
  "dcmmeta_reorient_transform": [
    [0.0, -1.0, 0.0, 69.0],
    [1.0, 0.0, 0.0, 0.0],
    [0.0, 0.0, 1.0, 0.0],
    [0.0, 0.0, 0.0, 1.0]
],
  "dcmmeta_shape": [70, 70, 34, 237],
  "dcmmeta_slice_dim": 2,
  "dcmmeta_version": 0.6,
  "global": {
    "const": {
      "AccessionNumber": "M.BRZ",
      "AcquisitionMatrix": [70, 0, 0, 70],
      "AngioFlag": "N",
      "BitsAllocated": 16,
      "BitsStored": 12,
      "BodyPartExamined": "HEAD",
      "Columns": 420,
      "EchoNumbers": 1,
      "EchoTime": 30.0,
      "EchoTrainLength": 53,
      "FlipAngle": 90.0,
      "HighBit": 11,
      "ImageOrientationPatient": [0.99664912487402, -0.058947134234, 0.05670764722193, 0.07668795935274, 0.91454693204716, -0.3971433821348],
      "ImagePositionPatient": [-805.78695509344, -656.47866139017, 217.46734759766],
      "ImageType": [
        "ORIGINAL",
        "PRIMARY",
        "M",
        "ND",
        "NORM",
        "MOSAIC"
],
      "ImagedNucleus": "1H",
      "ImagingFrequency": 123.191268,
      "InPlanePhaseEncodingDirection": "COL",
      "MRAcquisitionType": "2D",
      "MagneticFieldStrength": 3.0,
      "Manufacturer": "SIEMENS",
      "ManufacturerModelName": "Prisma",
      "Modality": "MR",
      "NumberOfAverages": 1.0,
      "NumberOfPhaseEncodingSteps": 105,
      "PercentPhaseFieldOfView": 100.0,
      "PercentSampling": 100.0,
      "PerformedProcedureStepStartTime": "144144.494000",
      "PhotometricInterpretation": "MONOCHROME2",
      "PixelBandwidth": 2465.0,
      "PixelRepresentation": 0,
      "PixelSpacing": [3.542857170105, 3.542857170105],
      "ProtocolName": "ep2d_p2_Task_3.5_measurment:237",
      "RepetitionTime": 2000.0,
      "Rows": 420,
      "SAR": 0.07920119930609,
      "SamplesPerPixel": 1,
      "ScanOptions": "FS",
      "ScanningSequence": "EP",
      "SequenceName": "*epfid2d1_70",
      "SequenceVariant": [
        "SK",
        "OSP"
],
      "SeriesDescription": "ep2d_p2_Task_3.5_measurment:237",
      "SeriesNumber": 4,
      "SeriesTime": "145221.495000",
      "SliceLocation": -40.570971194035,
      "SliceThickness": 3.5,
      "SmallestImagePixelValue": 0,
      "SoftwareVersions": "syngo MR E11",
      "SpacingBetweenSlices": 3.8500000016861,
      "SpecificCharacterSet": "ISO_IR 100",
      "StudyID": "1",
      "StudyTime": "144144.418000",
      "TransmitCoilName": "Body",
      "VariableFlipAngleFlag": "N",
      "WindowCenterWidthExplanation": "Algo1",
      "dBdt": 0.0},
    "slices": {}
  },
  "time": {
    "samples": {
      "AcquisitionNumber": [1, 2, 3, 4, 5, 6, 7, 8, 9, 10, 11, 12, 13, 14, 15, 16, 17, 18, 19, 20, 21, 22, 23, 24, 25, 26, 27, 28, 29, 30, 31, 32, 33, 34, 35, 36, 37, 38, 39, 40, 41, 42, 43, 44, 45, 46, 47, 48, 49, 50, 51, 52, 53, 54, 55, 56, 57, 58, 59, 60, 61, 62, 63, 64, 65, 66, 67, 68, 69, 70, 71, 72, 73, 74, 75, 76, 77, 78, 79, 80, 81, 82, 83, 84, 85, 86, 87, 88, 89, 90, 91, 92, 93, 94, 95, 96, 97, 98, 99, 100, 101, 102, 103, 104, 105, 106, 107, 108, 109, 110, 111, 112, 113, 114, 115, 116, 117, 118, 119, 120, 121, 122, 123, 124, 125, 126, 127, 128, 129, 130, 131, 132, 133, 134, 135, 136, 137, 138, 139, 140, 141, 142, 143, 144, 145, 146, 147, 148, 149, 150, 151, 152, 153, 154, 155, 156, 157, 158, 159, 160, 161, 162, 163, 164, 165, 166, 167, 168, 169, 170, 171, 172, 173, 174, 175, 176, 177, 178, 179, 180, 181, 182, 183, 184, 185, 186, 187, 188, 189, 190, 191, 192, 193, 194, 195, 196, 197, 198, 199, 200, 201, 202, 203, 204, 205, 206, 207, 208, 209, 210, 211, 212, 213, 214, 215, 216, 217, 218, 219, 220, 221, 222, 223, 224, 225, 226, 227, 228, 229, 230, 231, 232, 233, 234, 235, 236, 237],
      "AcquisitionTime": ["145140.177500", "145142.177500", "145144.177500", "145146.177500", "145148.177500", "145150.177500", "145152.177500", "145154.177500", "145156.177500", "145158.177500", "145200.177500", "145202.177500", "145204.177500", "145206.177500", "145208.177500", "145210.177500", "145212.177500", "145214.177500", "145216.177500", "145218.177500", "145220.177500", "145222.177500", "145224.177500", "145226.177500", "145228.177500", "145230.177500", "145232.177500", "145234.177500", "145236.177500", "145238.177500", "145240.177500", "145242.177500", "145244.177500", "145246.177500", "145248.177500", "145250.177500", "145252.177500", "145254.177500", "145256.177500", "145258.177500", "145300.177500", "145302.177500", "145304.177500", "145306.177500", "145308.177500", "145310.177500", "145312.177500", "145314.177500", "145316.177500", "145318.177500", "145320.177500", "145322.177500", "145324.177500", "145326.177500", "145328.177500", "145330.177500", "145332.177500", "145334.177500", "145336.177500", "145338.177500", "145340.177500", "145342.177500", "145344.177500", "145346.177500", "145348.177500", "145350.177500", "145352.177500", "145354.177500", "145356.177500", "145358.177500", "145400.177500", "145402.177500", "145404.177500", "145406.177500", "145408.177500", "145410.177500", "145412.177500", "145414.177500", "145416.177500", "145418.177500", "145420.177500", "145422.177500", "145424.177500", "145426.177500", "145428.177500", "145430.177500", "145432.177500", "145434.177500", "145436.177500", "145438.177500", "145440.177500", "145442.177500", "145444.177500", "145446.177500", "145448.177500", "145450.177500", "145452.177500", "145454.177500", "145456.177500", "145458.177500", "145500.177500", "145502.177500", "145504.177500", "145506.177500", "145508.177500", "145510.177500", "145512.177500", "145514.177500", "145516.177500", "145518.177500", "145520.177500", "145522.177500", "145524.177500", "145526.177500", "145528.177500", "145530.177500", "145532.177500", "145534.177500", "145536.177500", "145538.177500", "145540.177500", "145542.177500", "145544.177500", "145546.177500", "145548.177500", "145550.177500", "145552.177500", "145554.177500", "145556.177500", "145558.177500", "145600.177500", "145602.177500", "145604.177500", "145606.177500", "145608.177500", "145610.177500", "145612.177500", "145614.177500", "145616.177500", "145618.177500", "145620.177500", "145622.177500", "145624.177500", "145626.177500", "145628.177500", "145630.177500", "145632.177500", "145634.177500", "145636.177500", "145638.177500", "145640.177500", "145642.177500", "145644.177500", "145646.177500", "145648.177500", "145650.177500", "145652.177500", "145654.177500", "145656.177500", "145658.177500", "145700.177500", "145702.177500", "145704.177500", "145706.177500", "145708.177500", "145710.177500", "145712.177500", "145714.177500", "145716.177500", "145718.177500", "145720.177500", "145722.177500", "145724.177500", "145726.177500", "145728.177500", "145730.177500", "145732.177500", "145734.177500", "145736.177500", "145738.177500", "145740.177500", "145742.177500", "145744.177500", "145746.177500", "145748.177500", "145750.177500", "145752.177500", "145754.177500", "145756.177500", "145758.177500", "145800.177500", "145802.177500", "145804.177500", "145806.177500", "145808.177500", "145810.177500", "145812.177500", "145814.177500", "145816.177500", "145818.177500", "145820.177500", "145822.177500", "145824.177500", "145826.177500", "145828.177500", "145830.177500", "145832.177500", "145834.177500", "145836.177500", "145838.177500", "145840.177500", "145842.177500", "145844.177500", "145846.177500", "145848.177500", "145850.177500", "145852.177500", "145854.177500", "145856.177500", "145858.177500", "145900.177500", "145902.177500", "145904.177500", "145906.177500", "145908.177500", "145910.177500", "145912.177500", "145914.177500", "145916.177500", "145918.177500", "145920.177500", "145922.177500", "145924.177500", "145926.177500", "145928.177500", "145930.177500", "145932.177500"],
      "ContentTime": ["145221.501000", "145221.505000", "145221.509000", "145221.526000", "145221.529000", "145221.532000", "145221.536000", "145221.539000", "145221.543000", "145221.546000", "145221.549000", "145221.552000", "145221.556000", "145221.559000", "145221.562000", "145221.565000", "145221.568000", "145221.572000", "145221.575000", "145221.581000", "145241.483000", "145241.487000", "145241.490000", "145241.493000", "145241.496000", "145241.510000", "145241.513000", "145241.517000", "145241.527000", "145241.530000", "145321.484000", "145321.487000", "145321.491000", "145321.494000", "145321.498000", "145321.501000", "145321.504000", "145321.507000", "145321.510000", "145321.514000", "145321.518000", "145321.521000", "145321.525000", "145321.528000", "145321.543000", "145321.547000", "145321.550000", "145321.553000", "145321.557000", "145321.560000", "145401.482000", "145401.486000", "145401.489000", "145401.492000", "145401.495000", "145401.498000", "145401.501000", "145401.505000", "145401.508000", "145401.511000", "145401.516000", "145401.519000", "145401.522000", "145401.526000", "145401.529000", "145401.532000", "145401.535000", "145401.539000", "145401.542000", "145401.546000", "145441.482000", "145441.486000", "145441.489000", "145441.493000", "145441.497000", "145441.500000", "145441.503000", "145441.507000", "145441.510000", "145441.514000", "145441.517000", "145441.521000", "145441.524000", "145441.527000", "145441.532000", "145441.535000", "145441.538000", "145441.542000", "145441.545000", "145441.549000", "145521.486000", "145521.494000", "145521.497000", "145521.501000", "145521.504000", "145521.508000", "145521.511000", "145521.519000", "145521.522000", "145521.526000", "145521.529000", "145521.533000", "145521.536000", "145521.540000", "145521.544000", "145521.548000", "145521.551000", "145521.554000", "145521.558000", "145521.561000", "145601.483000", "145601.486000", "145601.490000", "145601.493000", "145601.496000", "145601.499000", "145601.503000", "145601.506000", "145601.509000", "145601.514000", "145601.517000", "145601.521000", "145601.524000", "145601.527000", "145601.530000", "145601.534000", "145601.537000", "145601.540000", "145601.544000", "145601.547000", "145641.482000", "145641.486000", "145641.489000", "145641.492000", "145641.495000", "145641.499000", "145641.502000", "145641.505000", "145641.508000", "145641.517000", "145641.521000", "145641.524000", "145641.527000", "145641.531000", "145641.535000", "145641.538000", "145641.542000", "145641.545000", "145641.549000", "145641.557000", "145721.483000", "145721.486000", "145721.490000", "145721.493000", "145721.496000", "145721.499000", "145721.502000", "145721.506000", "145721.509000", "145721.513000", "145721.517000", "145721.520000", "145721.523000", "145721.527000", "145721.530000", "145721.537000", "145721.540000", "145721.543000", "145721.546000", "145721.550000", "145801.483000", "145801.486000", "145801.488000", "145801.491000", "145801.493000", "145801.496000", "145801.498000", "145801.501000", "145801.503000", "145801.505000", "145801.508000", "145801.511000", "145801.514000", "145801.516000", "145801.519000", "145801.521000", "145801.524000", "145801.526000", "145801.529000", "145801.531000", "145841.482000", "145841.486000", "145841.497000", "145841.500000", "145841.504000", "145841.507000", "145841.512000", "145841.515000", "145841.519000", "145841.523000", "145841.526000", "145841.530000", "145841.533000", "145841.538000", "145841.541000", "145841.544000", "145841.548000", "145841.551000", "145841.555000", "145841.558000", "145921.485000", "145921.489000", "145921.492000", "145921.495000", "145921.499000", "145921.502000", "145921.506000", "145921.509000", "145921.514000", "145921.517000", "145921.520000", "145921.524000", "145921.527000", "145921.530000", "145921.533000", "145921.537000", "145921.541000", "145921.545000", "145921.548000", "145921.551000", "145933.566000", "145933.570000", "145933.573000", "145933.576000", "145933.580000", "145933.583000", "145933.587000"],
      "InstanceCreationTime": ["145221.501000", "145221.505000", "145221.509000", "145221.526000", "145221.529000", "145221.532000", "145221.536000", "145221.539000", "145221.543000", "145221.546000", "145221.549000", "145221.552000", "145221.556000", "145221.559000", "145221.562000", "145221.565000", "145221.568000", "145221.572000", "145221.575000", "145221.581000", "145241.483000", "145241.487000", "145241.490000", "145241.493000", "145241.496000", "145241.510000", "145241.513000", "145241.517000", "145241.527000", "145241.530000", "145321.484000", "145321.487000", "145321.491000", "145321.494000", "145321.498000", "145321.501000", "145321.504000", "145321.507000", "145321.510000", "145321.514000", "145321.518000", "145321.521000", "145321.525000", "145321.528000", "145321.543000", "145321.547000", "145321.550000", "145321.553000", "145321.557000", "145321.560000", "145401.482000", "145401.486000", "145401.489000", "145401.492000", "145401.495000", "145401.498000", "145401.501000", "145401.505000", "145401.508000", "145401.511000", "145401.516000", "145401.519000", "145401.522000", "145401.526000", "145401.529000", "145401.532000", "145401.535000", "145401.539000", "145401.542000", "145401.546000", "145441.482000", "145441.486000", "145441.489000", "145441.493000", "145441.497000", "145441.500000", "145441.503000", "145441.507000", "145441.510000", "145441.514000", "145441.517000", "145441.521000", "145441.524000", "145441.527000", "145441.532000", "145441.535000", "145441.538000", "145441.542000", "145441.545000", "145441.549000", "145521.486000", "145521.494000", "145521.497000", "145521.501000", "145521.504000", "145521.508000", "145521.511000", "145521.519000", "145521.522000", "145521.526000", "145521.529000", "145521.533000", "145521.536000", "145521.540000", "145521.544000", "145521.548000", "145521.551000", "145521.554000", "145521.558000", "145521.561000", "145601.483000", "145601.486000", "145601.490000", "145601.493000", "145601.496000", "145601.499000", "145601.503000", "145601.506000", "145601.509000", "145601.514000", "145601.517000", "145601.521000", "145601.524000", "145601.527000", "145601.530000", "145601.534000", "145601.537000", "145601.540000", "145601.544000", "145601.547000", "145641.482000", "145641.486000", "145641.489000", "145641.492000", "145641.495000", "145641.499000", "145641.502000", "145641.505000", "145641.508000", "145641.517000", "145641.521000", "145641.524000", "145641.527000", "145641.531000", "145641.535000", "145641.538000", "145641.542000", "145641.545000", "145641.549000", "145641.557000", "145721.483000", "145721.486000", "145721.490000", "145721.493000", "145721.496000", "145721.499000", "145721.502000", "145721.506000", "145721.509000", "145721.513000", "145721.517000", "145721.520000", "145721.523000", "145721.527000", "145721.530000", "145721.537000", "145721.540000", "145721.543000", "145721.546000", "145721.550000", "145801.483000", "145801.486000", "145801.488000", "145801.491000", "145801.493000", "145801.496000", "145801.498000", "145801.501000", "145801.503000", "145801.505000", "145801.508000", "145801.511000", "145801.514000", "145801.516000", "145801.519000", "145801.521000", "145801.524000", "145801.526000", "145801.529000", "145801.531000", "145841.482000", "145841.486000", "145841.497000", "145841.500000", "145841.504000", "145841.507000", "145841.512000", "145841.515000", "145841.519000", "145841.523000", "145841.526000", "145841.530000", "145841.533000", "145841.538000", "145841.541000", "145841.544000", "145841.548000", "145841.551000", "145841.555000", "145841.558000", "145921.485000", "145921.489000", "145921.492000", "145921.495000", "145921.499000", "145921.502000", "145921.506000", "145921.509000", "145921.514000", "145921.517000", "145921.520000", "145921.524000", "145921.527000", "145921.530000", "145921.533000", "145921.537000", "145921.541000", "145921.545000", "145921.548000", "145921.551000", "145933.566000", "145933.570000", "145933.573000", "145933.576000", "145933.580000", "145933.583000", "145933.587000"],
      "InstanceNumber": [1, 2, 3, 4, 5, 6, 7, 8, 9, 10, 11, 12, 13, 14, 15, 16, 17, 18, 19, 20, 21, 22, 23, 24, 25, 26, 27, 28, 29, 30, 31, 32, 33, 34, 35, 36, 37, 38, 39, 40, 41, 42, 43, 44, 45, 46, 47, 48, 49, 50, 51, 52, 53, 54, 55, 56, 57, 58, 59, 60, 61, 62, 63, 64, 65, 66, 67, 68, 69, 70, 71, 72, 73, 74, 75, 76, 77, 78, 79, 80, 81, 82, 83, 84, 85, 86, 87, 88, 89, 90, 91, 92, 93, 94, 95, 96, 97, 98, 99, 100, 101, 102, 103, 104, 105, 106, 107, 108, 109, 110, 111, 112, 113, 114, 115, 116, 117, 118, 119, 120, 121, 122, 123, 124, 125, 126, 127, 128, 129, 130, 131, 132, 133, 134, 135, 136, 137, 138, 139, 140, 141, 142, 143, 144, 145, 146, 147, 148, 149, 150, 151, 152, 153, 154, 155, 156, 157, 158, 159, 160, 161, 162, 163, 164, 165, 166, 167, 168, 169, 170, 171, 172, 173, 174, 175, 176, 177, 178, 179, 180, 181, 182, 183, 184, 185, 186, 187, 188, 189, 190, 191, 192, 193, 194, 195, 196, 197, 198, 199, 200, 201, 202, 203, 204, 205, 206, 207, 208, 209, 210, 211, 212, 213, 214, 215, 216, 217, 218, 219, 220, 221, 222, 223, 224, 225, 226, 227, 228, 229, 230, 231, 232, 233, 234, 235, 236, 237],
      "LargestImagePixelValue": [1918, 1881, 2172, 2185, 1970, 2046, 2406, 1812, 1749, 1768, 1735, 1794, 1738, 2939, 1977, 1737, 1694, 2327, 2058, 1717, 1710, 1728, 1761, 2300, 2455, 2334, 1819, 1775, 1782, 1895, 1824, 1854, 1873, 1871, 2103, 1717, 2113, 2864, 1959, 1778, 1726, 1941, 2021, 2178, 2235, 2262, 1802, 1965, 2451, 1799, 1937, 1859, 2072, 2100, 2066, 1835, 1909, 1916, 1907, 2123, 2229, 2157, 1924, 1856, 2411, 1844, 1816, 1850, 2221, 2133, 1749, 1866, 2011, 2382, 2005, 1794, 1855, 1910, 1931, 1983, 1925, 1988, 1974, 2010, 1995, 1995, 1934, 1942, 2729, 1969, 1824, 1935, 2110, 2229, 2032, 1850, 1869, 1929, 2315, 2036, 1894, 2008, 2006, 2011, 2025, 1998, 2004, 1987, 2001, 2008, 1978, 2014, 1893, 2024, 2014, 2301, 1883, 1905, 2441, 2083, 1898, 1889, 2288, 1879, 1967, 1954, 1941, 2067, 2504, 1938, 1921, 1970, 1930, 2037, 2122, 2024, 2338, 1980, 1905, 1947, 1957, 1887, 2228, 2320, 1905, 1906, 2018, 2186, 1819, 1929, 1938, 2384, 1909, 1860, 1997, 1930, 2502, 2092, 1884, 1956, 2030, 2031, 1955, 2144, 1923, 2246, 1976, 1868, 2449, 2021, 1837, 1866, 1870, 2652, 1941, 1844, 1991, 1874, 2207, 2162, 1841, 1885, 2374, 2046, 1876, 2002, 1950, 2342, 2192, 1897, 1888, 1990, 1972, 1968, 1933, 2046, 2250, 2265, 1904, 1856, 1852, 1888, 1930, 1929, 1958, 2020, 2015, 1939, 1957, 2002, 2175, 1912, 2121, 2128, 2034, 2359, 2303, 1854, 1807, 1910, 1961, 1961, 1942, 2063, 2241, 2538, 1828, 1862, 2322, 2148, 2004, 2038, 2129, 2385, 2151, 2028, 1884],
      "WindowCenter": [684.0, 683.0, 684.0, 683.0, 683.0, 683.0, 684.0, 682.0, 682.0, 682.0, 681.0, 681.0, 681.0, 684.0, 681.0, 681.0, 681.0, 683.0, 681.0, 680.0, 680.0, 673.0, 673.0, 685.0, 683.0, 682.0, 681.0, 680.0, 681.0, 681.0, 682.0, 683.0, 683.0, 683.0, 683.0, 683.0, 683.0, 684.0, 682.0, 683.0, 683.0, 684.0, 684.0, 683.0, 683.0, 683.0, 681.0, 681.0, 682.0, 680.0, 681.0, 681.0, 681.0, 682.0, 682.0, 681.0, 681.0, 682.0, 682.0, 682.0, 682.0, 682.0, 681.0, 681.0, 682.0, 681.0, 682.0, 683.0, 683.0, 682.0, 681.0, 682.0, 682.0, 683.0, 682.0, 681.0, 681.0, 681.0, 682.0, 682.0, 682.0, 681.0, 682.0, 682.0, 682.0, 682.0, 682.0, 681.0, 683.0, 681.0, 681.0, 681.0, 682.0, 682.0, 682.0, 681.0, 681.0, 681.0, 683.0, 681.0, 681.0, 681.0, 681.0, 682.0, 682.0, 681.0, 681.0, 681.0, 681.0, 681.0, 681.0, 681.0, 681.0, 682.0, 682.0, 683.0, 681.0, 681.0, 682.0, 681.0, 681.0, 681.0, 682.0, 681.0, 681.0, 681.0, 681.0, 681.0, 682.0, 681.0, 681.0, 680.0, 681.0, 682.0, 682.0, 682.0, 683.0, 682.0, 681.0, 681.0, 681.0, 681.0, 682.0, 682.0, 681.0, 681.0, 681.0, 681.0, 680.0, 681.0, 681.0, 682.0, 681.0, 681.0, 681.0, 681.0, 682.0, 681.0, 680.0, 681.0, 681.0, 682.0, 681.0, 682.0, 681.0, 683.0, 681.0, 680.0, 682.0, 681.0, 681.0, 682.0, 682.0, 683.0, 681.0, 681.0, 682.0, 681.0, 682.0, 681.0, 680.0, 681.0, 682.0, 681.0, 680.0, 680.0, 681.0, 681.0, 681.0, 681.0, 681.0, 681.0, 681.0, 682.0, 681.0, 681.0, 682.0, 682.0, 681.0, 681.0, 681.0, 681.0, 681.0, 681.0, 681.0, 681.0, 681.0, 681.0, 681.0, 681.0, 682.0, 683.0, 682.0, 681.0, 679.0, 679.0, 679.0, 679.0, 680.0, 681.0, 681.0, 682.0, 683.0, 682.0, 682.0, 682.0, 680.0, 681.0, 682.0, 683.0, 683.0, 683.0, 683.0, 683.0, 682.0, 681.0, 681.0],
      "WindowWidth": [1521.0, 1518.0, 1520.0, 1519.0, 1518.0, 1520.0, 1522.0, 1515.0, 1515.0, 1515.0, 1514.0, 1514.0, 1514.0, 1522.0, 1513.0, 1511.0, 1511.0, 1518.0, 1514.0, 1510.0, 1511.0, 1488.0, 1484.0, 1528.0, 1517.0, 1515.0, 1511.0, 1509.0, 1510.0, 1512.0, 1514.0, 1517.0, 1518.0, 1519.0, 1520.0, 1519.0, 1520.0, 1523.0, 1515.0, 1518.0, 1518.0, 1521.0, 1521.0, 1520.0, 1520.0, 1518.0, 1510.0, 1511.0, 1515.0, 1509.0, 1511.0, 1511.0, 1514.0, 1516.0, 1515.0, 1511.0, 1513.0, 1516.0, 1515.0, 1516.0, 1516.0, 1516.0, 1513.0, 1511.0, 1514.0, 1513.0, 1516.0, 1517.0, 1518.0, 1516.0, 1512.0, 1515.0, 1517.0, 1520.0, 1515.0, 1511.0, 1511.0, 1512.0, 1514.0, 1514.0, 1513.0, 1513.0, 1514.0, 1515.0, 1515.0, 1517.0, 1515.0, 1514.0, 1518.0, 1511.0, 1511.0, 1513.0, 1516.0, 1517.0, 1515.0, 1512.0, 1511.0, 1513.0, 1518.0, 1513.0, 1510.0, 1512.0, 1513.0, 1514.0, 1515.0, 1513.0, 1512.0, 1513.0, 1513.0, 1512.0, 1512.0, 1512.0, 1511.0, 1514.0, 1515.0, 1517.0, 1511.0, 1512.0, 1516.0, 1513.0, 1511.0, 1512.0, 1516.0, 1512.0, 1513.0, 1512.0, 1512.0, 1513.0, 1517.0, 1510.0, 1510.0, 1510.0, 1513.0, 1514.0, 1516.0, 1514.0, 1519.0, 1514.0, 1512.0, 1512.0, 1512.0, 1512.0, 1516.0, 1517.0, 1511.0, 1512.0, 1513.0, 1514.0, 1509.0, 1511.0, 1511.0, 1516.0, 1513.0, 1512.0, 1512.0, 1512.0, 1516.0, 1511.0, 1510.0, 1511.0, 1514.0, 1514.0, 1512.0, 1514.0, 1513.0, 1517.0, 1511.0, 1508.0, 1514.0, 1513.0, 1513.0, 1514.0, 1515.0, 1520.0, 1512.0, 1512.0, 1514.0, 1512.0, 1514.0, 1513.0, 1509.0, 1510.0, 1515.0, 1512.0, 1510.0, 1510.0, 1510.0, 1513.0, 1513.0, 1511.0, 1510.0, 1512.0, 1513.0, 1514.0, 1512.0, 1513.0, 1514.0, 1515.0, 1512.0, 1512.0, 1511.0, 1510.0, 1511.0, 1512.0, 1512.0, 1512.0, 1511.0, 1511.0, 1510.0, 1511.0, 1516.0, 1517.0, 1517.0, 1512.0, 1506.0, 1506.0, 1506.0, 1504.0, 1509.0, 1512.0, 1513.0, 1516.0, 1517.0, 1516.0, 1516.0, 1516.0, 1508.0, 1510.0, 1514.0, 1518.0, 1518.0, 1517.0, 1518.0, 1520.0, 1515.0, 1513.0, 1512.0]
    },
    "slices": {}
  }
}