{
  "AcquisitionMatrixPE": 70,
  "AcquisitionNumber": 1,
  "AcquisitionTime": "15:45:27.900000",
  "BandwidthPerPixelPhaseEncode": 38.873,
  "BaseResolution": 70,
  "BodyPartExamined": "HEAD",
  "ConsistencyInfo": "N4_VE11B_LATEST_20150530",
  "ConversionSoftware": "dcm2niix",
  "ConversionSoftwareVersion": "v1.0.20190410  GCC6.3.0",
  "DerivedVendorReportedEchoSpacing": 0.000489996,
  "DeviceSerialNumber": "66088",
  "DwellTime": 2.9e-06,
  "EchoTime": 0.03,
  "EchoTrainLength": 53,
  "EffectiveEchoSpacing": 0.000367497,
  "FlipAngle": 90,
  "ImageOrientationPatientDICOM": [0.996649, -0.0589471, 0.0567076, 0.076688, 0.914547, -0.397143],
  "ImageType": [
    "ORIGINAL",
    "PRIMARY",
    "M",
    "ND",
    "NORM",
    "MOSAIC"
],
  "ImagingFrequency": 123.191,
  "InPlanePhaseEncodingDirectionDICOM": "COL",
  "InstitutionAddress": "Street_StreetNo_City_District_IR_ZIP",
  "InstitutionName": "NBML",
  "InstitutionalDepartmentName": "Department",
  "MRAcquisitionType": "2D",
  "MagneticFieldStrength": 3,
  "Manufacturer": "Siemens",
  "ManufacturersModelName": "Prisma",
  "Modality": "MR",
  "ParallelReductionFactorInPlane": 2,
  "PartialFourier": 1,
  "PatientPosition": "HFS",
  "PercentPhaseFOV": 100,
  "PhaseEncodingDirection": "j-",
  "PhaseEncodingSteps": 105,
  "PhaseOversampling": 0.5,
  "PhaseResolution": 1,
  "PixelBandwidth": 2465,
  "ProcedureStepDescription": "NBML_Project_P_96169_Ebrahiminiya-Khaliq",
  "ProtocolName": "ep2d_p2_Task_3.5_measurment:237",
  "PulseSequenceDetails": "%SiemensSeq%_ep2d_pace",
  "ReceiveCoilActiveElements": "HC1-7;NC1",
  "ReceiveCoilName": "HeadNeck_64",
  "ReconMatrixPE": 70,
  "RefLinesPE": 24,
  "RepetitionTime": 2,
  "SAR": 0.0792012,
  "ScanOptions": "FS",
  "ScanningSequence": "EP",
  "SequenceName": "_epfid2d1_70",
  "SequenceVariant": "SK_OSP",
  "SeriesDescription": "ep2d_p2_Task_3.5_measurment:237",
  "SeriesNumber": 10,
  "ShimSetting": [2592, -4490, -3357, 281, 8, -102, -142, -41],
  "SliceThickness": 3.5,
  "SliceTiming": [0.99, 0, 1.0475, 0.0575, 1.105, 0.115, 1.165, 0.175, 1.2225, 0.2325, 1.28, 0.29, 1.34, 0.35, 1.3975, 0.4075, 1.455, 0.465, 1.5125, 0.5225, 1.5725, 0.5825, 1.63, 0.64, 1.6875, 0.6975, 1.7475, 0.7575, 1.805, 0.815, 1.8625, 0.8725, 1.92, 0.9325],
  "SoftwareVersions": "syngo_MR_E11",
  "SpacingBetweenSlices": 3.85,
  "StationName": "AWP66088",
  "TaskName": "categorySelectivity",
  "TotalReadoutTime": 0.0253573,
  "TxRefAmp": 220.21,
  "dcmmeta_affine": [
    [-3.5309855937957764, 0.27169448137283325, 0.10953766107559204, 121.57103729248047],
    [0.20884127914905548, 3.2401092052459717, -1.5406213998794556, -97.56075286865234],
    [0.20090709626674652, 1.40702223777771, 3.526611328125, -90.68734741210938],
    [0.0, 0.0, 0.0, 1.0]
],
  "dcmmeta_reorient_transform": [
    [0.0, -1.0, 0.0, 69.0],
    [1.0, 0.0, 0.0, 0.0],
    [0.0, 0.0, 1.0, 0.0],
    [0.0, 0.0, 0.0, 1.0]
],
  "dcmmeta_shape": [70, 70, 34, 237],
  "dcmmeta_slice_dim": 2,
  "dcmmeta_version": 0.6,
  "global": {
    "const": {
      "AccessionNumber": "M.BRZ",
      "AcquisitionMatrix": [70, 0, 0, 70],
      "AngioFlag": "N",
      "BitsAllocated": 16,
      "BitsStored": 12,
      "BodyPartExamined": "HEAD",
      "Columns": 420,
      "EchoNumbers": 1,
      "EchoTime": 30.0,
      "EchoTrainLength": 53,
      "FlipAngle": 90.0,
      "HighBit": 11,
      "ImageOrientationPatient": [0.99664912487402, -0.058947134234, 0.05670764722193, 0.07668795935274, 0.91454693204716, -0.3971433821348],
      "ImagePositionPatient": [-805.78695509344, -656.47866139017, 217.46734759766],
      "ImageType": [
        "ORIGINAL",
        "PRIMARY",
        "M",
        "ND",
        "NORM",
        "MOSAIC"
],
      "ImagedNucleus": "1H",
      "ImagingFrequency": 123.191279,
      "InPlanePhaseEncodingDirection": "COL",
      "MRAcquisitionType": "2D",
      "MagneticFieldStrength": 3.0,
      "Manufacturer": "SIEMENS",
      "ManufacturerModelName": "Prisma",
      "Modality": "MR",
      "NumberOfAverages": 1.0,
      "NumberOfPhaseEncodingSteps": 105,
      "PercentPhaseFieldOfView": 100.0,
      "PercentSampling": 100.0,
      "PerformedProcedureStepStartTime": "144144.494000",
      "PhotometricInterpretation": "MONOCHROME2",
      "PixelBandwidth": 2465.0,
      "PixelRepresentation": 0,
      "PixelSpacing": [3.542857170105, 3.542857170105],
      "ProtocolName": "ep2d_p2_Task_3.5_measurment:237",
      "RepetitionTime": 2000.0,
      "Rows": 420,
      "SAR": 0.07920119930609,
      "SamplesPerPixel": 1,
      "ScanOptions": "FS",
      "ScanningSequence": "EP",
      "SequenceName": "*epfid2d1_70",
      "SequenceVariant": [
        "SK",
        "OSP"
],
      "SeriesDescription": "ep2d_p2_Task_3.5_measurment:237",
      "SeriesNumber": 10,
      "SeriesTime": "154619.623000",
      "SliceLocation": -40.570971194035,
      "SliceThickness": 3.5,
      "SmallestImagePixelValue": 0,
      "SoftwareVersions": "syngo MR E11",
      "SpacingBetweenSlices": 3.8500000016861,
      "SpecificCharacterSet": "ISO_IR 100",
      "StudyID": "1",
      "StudyTime": "144144.418000",
      "TransmitCoilName": "Body",
      "VariableFlipAngleFlag": "N",
      "WindowCenterWidthExplanation": "Algo1",
      "dBdt": 0.0},
    "slices": {}
  },
  "time": {
    "samples": {
      "AcquisitionNumber": [1, 2, 3, 4, 5, 6, 7, 8, 9, 10, 11, 12, 13, 14, 15, 16, 17, 18, 19, 20, 21, 22, 23, 24, 25, 26, 27, 28, 29, 30, 31, 32, 33, 34, 35, 36, 37, 38, 39, 40, 41, 42, 43, 44, 45, 46, 47, 48, 49, 50, 51, 52, 53, 54, 55, 56, 57, 58, 59, 60, 61, 62, 63, 64, 65, 66, 67, 68, 69, 70, 71, 72, 73, 74, 75, 76, 77, 78, 79, 80, 81, 82, 83, 84, 85, 86, 87, 88, 89, 90, 91, 92, 93, 94, 95, 96, 97, 98, 99, 100, 101, 102, 103, 104, 105, 106, 107, 108, 109, 110, 111, 112, 113, 114, 115, 116, 117, 118, 119, 120, 121, 122, 123, 124, 125, 126, 127, 128, 129, 130, 131, 132, 133, 134, 135, 136, 137, 138, 139, 140, 141, 142, 143, 144, 145, 146, 147, 148, 149, 150, 151, 152, 153, 154, 155, 156, 157, 158, 159, 160, 161, 162, 163, 164, 165, 166, 167, 168, 169, 170, 171, 172, 173, 174, 175, 176, 177, 178, 179, 180, 181, 182, 183, 184, 185, 186, 187, 188, 189, 190, 191, 192, 193, 194, 195, 196, 197, 198, 199, 200, 201, 202, 203, 204, 205, 206, 207, 208, 209, 210, 211, 212, 213, 214, 215, 216, 217, 218, 219, 220, 221, 222, 223, 224, 225, 226, 227, 228, 229, 230, 231, 232, 233, 234, 235, 236, 237],
      "AcquisitionTime": ["154527.900000", "154529.900000", "154531.900000", "154533.900000", "154535.900000", "154537.900000", "154539.900000", "154541.900000", "154543.900000", "154545.900000", "154547.900000", "154549.900000", "154551.900000", "154553.900000", "154555.900000", "154557.900000", "154559.900000", "154601.900000", "154603.900000", "154605.900000", "154607.900000", "154609.900000", "154611.900000", "154613.900000", "154615.900000", "154617.900000", "154619.900000", "154621.900000", "154623.900000", "154625.900000", "154627.900000", "154629.900000", "154631.900000", "154633.900000", "154635.900000", "154637.900000", "154639.900000", "154641.900000", "154643.900000", "154645.900000", "154647.900000", "154649.900000", "154651.900000", "154653.900000", "154655.900000", "154657.900000", "154659.900000", "154701.900000", "154703.900000", "154705.900000", "154707.900000", "154709.900000", "154711.900000", "154713.900000", "154715.900000", "154717.900000", "154719.900000", "154721.900000", "154723.900000", "154725.900000", "154727.900000", "154729.900000", "154731.900000", "154733.900000", "154735.900000", "154737.900000", "154739.900000", "154741.900000", "154743.900000", "154745.900000", "154747.900000", "154749.900000", "154751.900000", "154753.900000", "154755.900000", "154757.900000", "154759.900000", "154801.900000", "154803.900000", "154805.900000", "154807.900000", "154809.900000", "154811.900000", "154813.900000", "154815.900000", "154817.900000", "154819.900000", "154821.900000", "154823.900000", "154825.900000", "154827.900000", "154829.900000", "154831.900000", "154833.900000", "154835.900000", "154837.900000", "154839.900000", "154841.900000", "154843.900000", "154845.900000", "154847.900000", "154849.900000", "154851.900000", "154853.900000", "154855.900000", "154857.900000", "154859.900000", "154901.900000", "154903.900000", "154905.900000", "154907.900000", "154909.900000", "154911.900000", "154913.900000", "154915.900000", "154917.900000", "154919.900000", "154921.900000", "154923.900000", "154925.900000", "154927.900000", "154929.900000", "154931.900000", "154933.900000", "154935.900000", "154937.900000", "154939.900000", "154941.900000", "154943.900000", "154945.900000", "154947.900000", "154949.900000", "154951.900000", "154953.900000", "154955.900000", "154957.900000", "154959.900000", "155001.900000", "155003.900000", "155005.900000", "155007.900000", "155009.900000", "155011.900000", "155013.900000", "155015.900000", "155017.900000", "155019.900000", "155021.900000", "155023.900000", "155025.900000", "155027.900000", "155029.900000", "155031.900000", "155033.900000", "155035.900000", "155037.900000", "155039.900000", "155041.900000", "155043.900000", "155045.900000", "155047.900000", "155049.900000", "155051.900000", "155053.900000", "155055.900000", "155057.900000", "155059.900000", "155101.900000", "155103.900000", "155105.900000", "155107.900000", "155109.900000", "155111.900000", "155113.900000", "155115.900000", "155117.900000", "155119.900000", "155121.900000", "155123.900000", "155125.900000", "155127.900000", "155129.900000", "155131.900000", "155133.900000", "155135.900000", "155137.900000", "155139.900000", "155141.900000", "155143.900000", "155145.900000", "155147.900000", "155149.900000", "155151.900000", "155153.900000", "155155.900000", "155157.900000", "155159.900000", "155201.900000", "155203.900000", "155205.900000", "155207.900000", "155209.900000", "155211.900000", "155213.900000", "155215.900000", "155217.900000", "155219.900000", "155221.900000", "155223.900000", "155225.900000", "155227.900000", "155229.900000", "155231.900000", "155233.900000", "155235.900000", "155237.900000", "155239.900000", "155241.900000", "155243.900000", "155245.900000", "155247.900000", "155249.900000", "155251.900000", "155253.900000", "155255.900000", "155257.900000", "155259.900000", "155301.900000", "155303.900000", "155305.900000", "155307.900000", "155309.900000", "155311.900000", "155313.900000", "155315.900000", "155317.900000", "155319.900000"],
      "ContentTime": ["154619.627000", "154619.632000", "154619.635000", "154619.638000", "154619.641000", "154619.645000", "154619.648000", "154619.651000", "154619.654000", "154619.658000", "154619.661000", "154619.664000", "154619.667000", "154619.670000", "154619.673000", "154619.677000", "154619.681000", "154619.684000", "154619.688000", "154619.701000", "154619.705000", "154619.708000", "154619.711000", "154619.714000", "154619.717000", "154659.616000", "154659.619000", "154659.621000", "154659.624000", "154659.626000", "154659.629000", "154659.631000", "154659.634000", "154659.636000", "154659.639000", "154659.642000", "154659.644000", "154659.647000", "154659.649000", "154659.652000", "154659.655000", "154659.657000", "154659.660000", "154659.662000", "154659.665000", "154739.617000", "154739.621000", "154739.624000", "154739.627000", "154739.630000", "154739.633000", "154739.636000", "154739.639000", "154739.643000", "154739.646000", "154739.649000", "154739.652000", "154739.655000", "154739.668000", "154739.671000", "154739.675000", "154739.678000", "154739.681000", "154739.684000", "154739.687000", "154819.619000", "154819.622000", "154819.625000", "154819.629000", "154819.632000", "154819.635000", "154819.638000", "154819.642000", "154819.645000", "154819.648000", "154819.652000", "154819.655000", "154819.658000", "154819.661000", "154819.664000", "154819.668000", "154819.671000", "154819.675000", "154819.678000", "154819.681000", "154859.616000", "154859.619000", "154859.622000", "154859.624000", "154859.627000", "154859.630000", "154859.632000", "154859.635000", "154859.638000", "154859.640000", "154859.643000", "154859.646000", "154859.648000", "154859.651000", "154859.653000", "154859.656000", "154859.658000", "154859.661000", "154859.664000", "154859.666000", "154939.616000", "154939.619000", "154939.622000", "154939.625000", "154939.629000", "154939.632000", "154939.635000", "154939.638000", "154939.641000", "154939.644000", "154939.648000", "154939.651000", "154939.654000", "154939.658000", "154939.661000", "154939.664000", "154939.667000", "154939.670000", "154939.673000", "154939.677000", "155019.616000", "155019.620000", "155019.623000", "155019.626000", "155019.629000", "155019.632000", "155019.635000", "155019.638000", "155019.642000", "155019.645000", "155019.648000", "155019.651000", "155019.654000", "155019.658000", "155019.661000", "155019.664000", "155019.667000", "155019.670000", "155019.674000", "155019.677000", "155059.617000", "155059.620000", "155059.623000", "155059.626000", "155059.628000", "155059.631000", "155059.633000", "155059.636000", "155059.639000", "155059.642000", "155059.644000", "155059.647000", "155059.649000", "155059.652000", "155059.654000", "155059.657000", "155059.660000", "155059.663000", "155059.665000", "155059.668000", "155139.616000", "155139.619000", "155139.623000", "155139.626000", "155139.629000", "155139.633000", "155139.636000", "155139.639000", "155139.643000", "155139.646000", "155139.649000", "155139.653000", "155139.664000", "155139.668000", "155139.671000", "155139.674000", "155139.678000", "155139.681000", "155139.684000", "155139.687000", "155219.616000", "155219.620000", "155219.623000", "155219.626000", "155219.629000", "155219.633000", "155219.636000", "155219.639000", "155219.642000", "155219.646000", "155219.649000", "155219.652000", "155219.656000", "155219.659000", "155219.662000", "155219.665000", "155219.668000", "155219.672000", "155219.675000", "155219.679000", "155239.616000", "155239.620000", "155239.623000", "155239.626000", "155239.629000", "155239.633000", "155239.636000", "155239.639000", "155239.642000", "155239.646000", "155319.618000", "155319.621000", "155319.624000", "155319.628000", "155319.631000", "155319.634000", "155319.637000", "155319.640000", "155319.644000", "155319.647000", "155319.650000", "155319.653000", "155319.657000", "155319.660000", "155319.663000", "155319.667000", "155319.670000", "155319.673000", "155319.676000", "155319.680000", "155321.902000", "155321.907000"],
      "InstanceCreationTime": ["154619.627000", "154619.632000", "154619.635000", "154619.638000", "154619.641000", "154619.645000", "154619.648000", "154619.651000", "154619.654000", "154619.658000", "154619.661000", "154619.664000", "154619.667000", "154619.670000", "154619.673000", "154619.677000", "154619.681000", "154619.684000", "154619.688000", "154619.701000", "154619.705000", "154619.708000", "154619.711000", "154619.714000", "154619.717000", "154659.616000", "154659.619000", "154659.621000", "154659.624000", "154659.626000", "154659.629000", "154659.631000", "154659.634000", "154659.636000", "154659.639000", "154659.642000", "154659.644000", "154659.647000", "154659.649000", "154659.652000", "154659.655000", "154659.657000", "154659.660000", "154659.662000", "154659.665000", "154739.617000", "154739.621000", "154739.624000", "154739.627000", "154739.630000", "154739.633000", "154739.636000", "154739.639000", "154739.643000", "154739.646000", "154739.649000", "154739.652000", "154739.655000", "154739.668000", "154739.671000", "154739.675000", "154739.678000", "154739.681000", "154739.684000", "154739.687000", "154819.619000", "154819.622000", "154819.625000", "154819.629000", "154819.632000", "154819.635000", "154819.638000", "154819.642000", "154819.645000", "154819.648000", "154819.652000", "154819.655000", "154819.658000", "154819.661000", "154819.664000", "154819.668000", "154819.671000", "154819.675000", "154819.678000", "154819.681000", "154859.616000", "154859.619000", "154859.622000", "154859.624000", "154859.627000", "154859.630000", "154859.632000", "154859.635000", "154859.638000", "154859.640000", "154859.643000", "154859.646000", "154859.648000", "154859.651000", "154859.653000", "154859.656000", "154859.658000", "154859.661000", "154859.664000", "154859.666000", "154939.616000", "154939.619000", "154939.622000", "154939.625000", "154939.629000", "154939.632000", "154939.635000", "154939.638000", "154939.641000", "154939.644000", "154939.648000", "154939.651000", "154939.654000", "154939.658000", "154939.661000", "154939.664000", "154939.667000", "154939.670000", "154939.673000", "154939.677000", "155019.616000", "155019.620000", "155019.623000", "155019.626000", "155019.629000", "155019.632000", "155019.635000", "155019.638000", "155019.642000", "155019.645000", "155019.648000", "155019.651000", "155019.654000", "155019.658000", "155019.661000", "155019.664000", "155019.667000", "155019.670000", "155019.674000", "155019.677000", "155059.617000", "155059.620000", "155059.623000", "155059.626000", "155059.628000", "155059.631000", "155059.633000", "155059.636000", "155059.639000", "155059.642000", "155059.644000", "155059.647000", "155059.649000", "155059.652000", "155059.654000", "155059.657000", "155059.660000", "155059.663000", "155059.665000", "155059.668000", "155139.616000", "155139.619000", "155139.623000", "155139.626000", "155139.629000", "155139.633000", "155139.636000", "155139.639000", "155139.643000", "155139.646000", "155139.649000", "155139.653000", "155139.664000", "155139.668000", "155139.671000", "155139.674000", "155139.678000", "155139.681000", "155139.684000", "155139.687000", "155219.616000", "155219.620000", "155219.623000", "155219.626000", "155219.629000", "155219.633000", "155219.636000", "155219.639000", "155219.642000", "155219.646000", "155219.649000", "155219.652000", "155219.656000", "155219.659000", "155219.662000", "155219.665000", "155219.668000", "155219.672000", "155219.675000", "155219.679000", "155239.616000", "155239.620000", "155239.623000", "155239.626000", "155239.629000", "155239.633000", "155239.636000", "155239.639000", "155239.642000", "155239.646000", "155319.618000", "155319.621000", "155319.624000", "155319.628000", "155319.631000", "155319.634000", "155319.637000", "155319.640000", "155319.644000", "155319.647000", "155319.650000", "155319.653000", "155319.657000", "155319.660000", "155319.663000", "155319.667000", "155319.670000", "155319.673000", "155319.676000", "155319.680000", "155321.902000", "155321.907000"],
      "InstanceNumber": [1, 2, 3, 4, 5, 6, 7, 8, 9, 10, 11, 12, 13, 14, 15, 16, 17, 18, 19, 20, 21, 22, 23, 24, 25, 26, 27, 28, 29, 30, 31, 32, 33, 34, 35, 36, 37, 38, 39, 40, 41, 42, 43, 44, 45, 46, 47, 48, 49, 50, 51, 52, 53, 54, 55, 56, 57, 58, 59, 60, 61, 62, 63, 64, 65, 66, 67, 68, 69, 70, 71, 72, 73, 74, 75, 76, 77, 78, 79, 80, 81, 82, 83, 84, 85, 86, 87, 88, 89, 90, 91, 92, 93, 94, 95, 96, 97, 98, 99, 100, 101, 102, 103, 104, 105, 106, 107, 108, 109, 110, 111, 112, 113, 114, 115, 116, 117, 118, 119, 120, 121, 122, 123, 124, 125, 126, 127, 128, 129, 130, 131, 132, 133, 134, 135, 136, 137, 138, 139, 140, 141, 142, 143, 144, 145, 146, 147, 148, 149, 150, 151, 152, 153, 154, 155, 156, 157, 158, 159, 160, 161, 162, 163, 164, 165, 166, 167, 168, 169, 170, 171, 172, 173, 174, 175, 176, 177, 178, 179, 180, 181, 182, 183, 184, 185, 186, 187, 188, 189, 190, 191, 192, 193, 194, 195, 196, 197, 198, 199, 200, 201, 202, 203, 204, 205, 206, 207, 208, 209, 210, 211, 212, 213, 214, 215, 216, 217, 218, 219, 220, 221, 222, 223, 224, 225, 226, 227, 228, 229, 230, 231, 232, 233, 234, 235, 236, 237],
      "LargestImagePixelValue": [2491, 1769, 2294, 1832, 2242, 1791, 2087, 2346, 1746, 2159, 1695, 2226, 1610, 2099, 1740, 2093, 2255, 1779, 2162, 1648, 2114, 1671, 2194, 1779, 2242, 2213, 1854, 2080, 2093, 2036, 2027, 1845, 2089, 1795, 2184, 1859, 2013, 2191, 1792, 2294, 1701, 2112, 1680, 2128, 1628, 2203, 1753, 2180, 1721, 2194, 1724, 2204, 1715, 1994, 2166, 1641, 2159, 1694, 2280, 1790, 2265, 1718, 2165, 2240, 1721, 2169, 1717, 2150, 2142, 1813, 1732, 2195, 1927, 1961, 1900, 1974, 1949, 2000, 2213, 1677, 2091, 1702, 2262, 1946, 2086, 2219, 1665, 2236, 2330, 1694, 2164, 1812, 2368, 1688, 1854, 2253, 1823, 2231, 1710, 1848, 2195, 1758, 2310, 1660, 2119, 1709, 2167, 1629, 2090, 2027, 1970, 2096, 1707, 2226, 1724, 2141, 1725, 2209, 1733, 2177, 1682, 2061, 1654, 2236, 1755, 2215, 1697, 2129, 1624, 2102, 1666, 2050, 1677, 2279, 1723, 2154, 1653, 2270, 1646, 2116, 1656, 2113, 1657, 2113, 1638, 2057, 1607, 2101, 1805, 1926, 1796, 2261, 1738, 2235, 1603, 2010, 2142, 1626, 1911, 1745, 2215, 1889, 2173, 2376, 1643, 2245, 1694, 2190, 1664, 2138, 1628, 2160, 2099, 1791, 2195, 1732, 2102, 1836, 2194, 1913, 2080, 2171, 1687, 2091, 1699, 2155, 1802, 2033, 1775, 2195, 1801, 1970, 2213, 1791, 1956, 1803, 2100, 1868, 1992, 2064, 1628, 2001, 2211, 1696, 2180, 1580, 2133, 1699, 2165, 1654, 2058, 1778, 2098, 2287, 1702, 2003, 1889, 2143, 1639, 1961, 2220, 1717, 2091, 1749, 2232, 1702, 2114, 1609, 2063, 1727, 2160, 1657, 2219, 1742, 2155, 1823, 1789],
      "WindowCenter": [681.0, 678.0, 678.0, 677.0, 679.0, 678.0, 679.0, 679.0, 678.0, 679.0, 678.0, 679.0, 677.0, 679.0, 678.0, 679.0, 678.0, 677.0, 678.0, 677.0, 678.0, 677.0, 678.0, 677.0, 678.0, 678.0, 677.0, 678.0, 679.0, 678.0, 678.0, 677.0, 678.0, 677.0, 678.0, 678.0, 678.0, 679.0, 678.0, 679.0, 677.0, 678.0, 677.0, 679.0, 677.0, 678.0, 677.0, 678.0, 677.0, 678.0, 677.0, 678.0, 676.0, 677.0, 678.0, 676.0, 678.0, 678.0, 680.0, 678.0, 678.0, 676.0, 678.0, 678.0, 677.0, 677.0, 677.0, 678.0, 678.0, 677.0, 678.0, 679.0, 678.0, 677.0, 677.0, 677.0, 677.0, 678.0, 679.0, 677.0, 679.0, 678.0, 678.0, 677.0, 678.0, 678.0, 676.0, 678.0, 678.0, 676.0, 678.0, 678.0, 679.0, 677.0, 678.0, 678.0, 677.0, 678.0, 677.0, 678.0, 679.0, 677.0, 679.0, 677.0, 678.0, 677.0, 678.0, 676.0, 678.0, 678.0, 677.0, 678.0, 677.0, 679.0, 677.0, 678.0, 677.0, 679.0, 677.0, 678.0, 677.0, 678.0, 676.0, 678.0, 677.0, 678.0, 677.0, 678.0, 676.0, 678.0, 676.0, 678.0, 677.0, 679.0, 678.0, 679.0, 677.0, 679.0, 677.0, 679.0, 677.0, 679.0, 677.0, 678.0, 676.0, 678.0, 676.0, 677.0, 677.0, 678.0, 678.0, 679.0, 677.0, 679.0, 676.0, 677.0, 678.0, 676.0, 677.0, 678.0, 679.0, 678.0, 678.0, 679.0, 677.0, 679.0, 677.0, 678.0, 677.0, 678.0, 676.0, 677.0, 677.0, 677.0, 677.0, 677.0, 678.0, 677.0, 678.0, 677.0, 678.0, 678.0, 676.0, 678.0, 678.0, 678.0, 677.0, 677.0, 677.0, 678.0, 677.0, 677.0, 678.0, 676.0, 677.0, 677.0, 680.0, 678.0, 678.0, 678.0, 676.0, 678.0, 679.0, 677.0, 678.0, 676.0, 678.0, 678.0, 679.0, 677.0, 678.0, 678.0, 679.0, 678.0, 677.0, 678.0, 678.0, 678.0, 677.0, 677.0, 678.0, 677.0, 679.0, 677.0, 679.0, 677.0, 678.0, 676.0, 678.0, 677.0, 678.0, 678.0, 679.0, 678.0, 678.0, 678.0, 677.0],
      "WindowWidth": [1511.0, 1500.0, 1502.0, 1499.0, 1505.0, 1500.0, 1504.0, 1506.0, 1501.0, 1506.0, 1501.0, 1505.0, 1498.0, 1504.0, 1500.0, 1503.0, 1503.0, 1498.0, 1502.0, 1497.0, 1501.0, 1497.0, 1502.0, 1498.0, 1503.0, 1503.0, 1499.0, 1503.0, 1503.0, 1501.0, 1500.0, 1498.0, 1501.0, 1498.0, 1502.0, 1499.0, 1501.0, 1503.0, 1499.0, 1505.0, 1498.0, 1501.0, 1498.0, 1503.0, 1498.0, 1502.0, 1497.0, 1502.0, 1498.0, 1502.0, 1498.0, 1501.0, 1496.0, 1499.0, 1500.0, 1494.0, 1502.0, 1500.0, 1506.0, 1500.0, 1501.0, 1495.0, 1501.0, 1501.0, 1496.0, 1499.0, 1496.0, 1500.0, 1500.0, 1499.0, 1500.0, 1503.0, 1500.0, 1499.0, 1498.0, 1499.0, 1499.0, 1500.0, 1503.0, 1499.0, 1504.0, 1500.0, 1503.0, 1499.0, 1501.0, 1503.0, 1496.0, 1500.0, 1501.0, 1495.0, 1502.0, 1500.0, 1505.0, 1499.0, 1500.0, 1502.0, 1497.0, 1503.0, 1498.0, 1499.0, 1503.0, 1498.0, 1504.0, 1497.0, 1502.0, 1498.0, 1501.0, 1496.0, 1500.0, 1500.0, 1499.0, 1503.0, 1499.0, 1503.0, 1497.0, 1501.0, 1498.0, 1503.0, 1498.0, 1501.0, 1497.0, 1501.0, 1495.0, 1501.0, 1497.0, 1502.0, 1496.0, 1500.0, 1493.0, 1500.0, 1496.0, 1502.0, 1498.0, 1504.0, 1499.0, 1503.0, 1498.0, 1503.0, 1497.0, 1502.0, 1497.0, 1503.0, 1498.0, 1501.0, 1496.0, 1500.0, 1495.0, 1499.0, 1497.0, 1500.0, 1499.0, 1504.0, 1498.0, 1503.0, 1495.0, 1498.0, 1500.0, 1494.0, 1498.0, 1500.0, 1506.0, 1501.0, 1502.0, 1503.0, 1496.0, 1503.0, 1497.0, 1502.0, 1496.0, 1501.0, 1494.0, 1499.0, 1498.0, 1496.0, 1499.0, 1496.0, 1500.0, 1498.0, 1501.0, 1499.0, 1500.0, 1500.0, 1494.0, 1500.0, 1499.0, 1502.0, 1497.0, 1499.0, 1498.0, 1502.0, 1497.0, 1498.0, 1499.0, 1495.0, 1498.0, 1498.0, 1506.0, 1501.0, 1500.0, 1500.0, 1494.0, 1500.0, 1503.0, 1498.0, 1501.0, 1494.0, 1503.0, 1500.0, 1503.0, 1496.0, 1501.0, 1500.0, 1502.0, 1503.0, 1497.0, 1501.0, 1499.0, 1500.0, 1497.0, 1498.0, 1501.0, 1498.0, 1504.0, 1499.0, 1503.0, 1497.0, 1501.0, 1494.0, 1499.0, 1496.0, 1501.0, 1499.0, 1503.0, 1499.0, 1503.0, 1500.0, 1498.0]
    },
    "slices": {}
  }
}