{
  "AcquisitionMatrixPE": 70,
  "AcquisitionNumber": 1,
  "AcquisitionTime": "15:27:25.477500",
  "BandwidthPerPixelPhaseEncode": 38.873,
  "BaseResolution": 70,
  "BodyPartExamined": "HEAD",
  "ConsistencyInfo": "N4_VE11B_LATEST_20150530",
  "ConversionSoftware": "dcm2niix",
  "ConversionSoftwareVersion": "v1.0.20190410  GCC6.3.0",
  "DerivedVendorReportedEchoSpacing": 0.000489996,
  "DeviceSerialNumber": "66088",
  "DwellTime": 2.9e-06,
  "EchoTime": 0.03,
  "EchoTrainLength": 53,
  "EffectiveEchoSpacing": 0.000367497,
  "FlipAngle": 90,
  "ImageOrientationPatientDICOM": [0.996649, -0.0589471, 0.0567076, 0.076688, 0.914547, -0.397143],
  "ImageType": [
    "ORIGINAL",
    "PRIMARY",
    "M",
    "ND",
    "NORM",
    "MOSAIC"
],
  "ImagingFrequency": 123.191,
  "InPlanePhaseEncodingDirectionDICOM": "COL",
  "InstitutionAddress": "Street_StreetNo_City_District_IR_ZIP",
  "InstitutionName": "NBML",
  "InstitutionalDepartmentName": "Department",
  "MRAcquisitionType": "2D",
  "MagneticFieldStrength": 3,
  "Manufacturer": "Siemens",
  "ManufacturersModelName": "Prisma",
  "Modality": "MR",
  "ParallelReductionFactorInPlane": 2,
  "PartialFourier": 1,
  "PatientPosition": "HFS",
  "PercentPhaseFOV": 100,
  "PhaseEncodingDirection": "j-",
  "PhaseEncodingSteps": 105,
  "PhaseOversampling": 0.5,
  "PhaseResolution": 1,
  "PixelBandwidth": 2465,
  "ProcedureStepDescription": "NBML_Project_P_96169_Ebrahiminiya-Khaliq",
  "ProtocolName": "ep2d_p2_Task_3.5_measurment:237",
  "PulseSequenceDetails": "%SiemensSeq%_ep2d_pace",
  "ReceiveCoilActiveElements": "HC1-7;NC1",
  "ReceiveCoilName": "HeadNeck_64",
  "ReconMatrixPE": 70,
  "RefLinesPE": 24,
  "RepetitionTime": 2,
  "SAR": 0.0792012,
  "ScanOptions": "FS",
  "ScanningSequence": "EP",
  "SequenceName": "_epfid2d1_70",
  "SequenceVariant": "SK_OSP",
  "SeriesDescription": "ep2d_p2_Task_3.5_measurment:237",
  "SeriesNumber": 8,
  "ShimSetting": [2592, -4490, -3357, 281, 8, -102, -142, -41],
  "SliceThickness": 3.5,
  "SliceTiming": [0.99, 0, 1.0475, 0.0575, 1.105, 0.115, 1.1625, 0.175, 1.2225, 0.2325, 1.28, 0.29, 1.3375, 0.3475, 1.3975, 0.4075, 1.455, 0.465, 1.5125, 0.5225, 1.5725, 0.5825, 1.63, 0.64, 1.6875, 0.6975, 1.745, 0.755, 1.805, 0.815, 1.8625, 0.8725, 1.92, 0.93],
  "SoftwareVersions": "syngo_MR_E11",
  "SpacingBetweenSlices": 3.85,
  "StationName": "AWP66088",
  "TaskName": "categorySelectivity",
  "TotalReadoutTime": 0.0253573,
  "TxRefAmp": 220.21,
  "dcmmeta_affine": [
    [-3.5309855937957764, 0.27169448137283325, 0.10953766107559204, 121.57103729248047],
    [0.20884127914905548, 3.2401092052459717, -1.5406213998794556, -97.56075286865234],
    [0.20090709626674652, 1.40702223777771, 3.526611328125, -90.68734741210938],
    [0.0, 0.0, 0.0, 1.0]
],
  "dcmmeta_reorient_transform": [
    [0.0, -1.0, 0.0, 69.0],
    [1.0, 0.0, 0.0, 0.0],
    [0.0, 0.0, 1.0, 0.0],
    [0.0, 0.0, 0.0, 1.0]
],
  "dcmmeta_shape": [70, 70, 34, 237],
  "dcmmeta_slice_dim": 2,
  "dcmmeta_version": 0.6,
  "global": {
    "const": {
      "AccessionNumber": "M.BRZ",
      "AcquisitionMatrix": [70, 0, 0, 70],
      "AngioFlag": "N",
      "BitsAllocated": 16,
      "BitsStored": 12,
      "BodyPartExamined": "HEAD",
      "Columns": 420,
      "EchoNumbers": 1,
      "EchoTime": 30.0,
      "EchoTrainLength": 53,
      "FlipAngle": 90.0,
      "HighBit": 11,
      "ImageOrientationPatient": [0.99664912487402, -0.058947134234, 0.05670764722193, 0.07668795935274, 0.91454693204716, -0.3971433821348],
      "ImagePositionPatient": [-805.78695509344, -656.47866139017, 217.46734759766],
      "ImageType": [
        "ORIGINAL",
        "PRIMARY",
        "M",
        "ND",
        "NORM",
        "MOSAIC"
],
      "ImagedNucleus": "1H",
      "ImagingFrequency": 123.191274,
      "InPlanePhaseEncodingDirection": "COL",
      "MRAcquisitionType": "2D",
      "MagneticFieldStrength": 3.0,
      "Manufacturer": "SIEMENS",
      "ManufacturerModelName": "Prisma",
      "Modality": "MR",
      "NumberOfAverages": 1.0,
      "NumberOfPhaseEncodingSteps": 105,
      "PercentPhaseFieldOfView": 100.0,
      "PercentSampling": 100.0,
      "PerformedProcedureStepStartTime": "144144.494000",
      "PhotometricInterpretation": "MONOCHROME2",
      "PixelBandwidth": 2465.0,
      "PixelRepresentation": 0,
      "PixelSpacing": [3.542857170105, 3.542857170105],
      "ProtocolName": "ep2d_p2_Task_3.5_measurment:237",
      "RepetitionTime": 2000.0,
      "Rows": 420,
      "SAR": 0.07920119930609,
      "SamplesPerPixel": 1,
      "ScanOptions": "FS",
      "ScanningSequence": "EP",
      "SequenceName": "*epfid2d1_70",
      "SequenceVariant": [
        "SK",
        "OSP"
],
      "SeriesDescription": "ep2d_p2_Task_3.5_measurment:237",
      "SeriesNumber": 8,
      "SeriesTime": "152810.358000",
      "SliceLocation": -40.570971194035,
      "SliceThickness": 3.5,
      "SmallestImagePixelValue": 0,
      "SoftwareVersions": "syngo MR E11",
      "SpacingBetweenSlices": 3.8500000016861,
      "SpecificCharacterSet": "ISO_IR 100",
      "StudyID": "1",
      "StudyTime": "144144.418000",
      "TransmitCoilName": "Body",
      "VariableFlipAngleFlag": "N",
      "WindowCenterWidthExplanation": "Algo1",
      "dBdt": 0.0},
    "slices": {}
  },
  "time": {
    "samples": {
      "AcquisitionNumber": [1, 2, 3, 4, 5, 6, 7, 8, 9, 10, 11, 12, 13, 14, 15, 16, 17, 18, 19, 20, 21, 22, 23, 24, 25, 26, 27, 28, 29, 30, 31, 32, 33, 34, 35, 36, 37, 38, 39, 40, 41, 42, 43, 44, 45, 46, 47, 48, 49, 50, 51, 52, 53, 54, 55, 56, 57, 58, 59, 60, 61, 62, 63, 64, 65, 66, 67, 68, 69, 70, 71, 72, 73, 74, 75, 76, 77, 78, 79, 80, 81, 82, 83, 84, 85, 86, 87, 88, 89, 90, 91, 92, 93, 94, 95, 96, 97, 98, 99, 100, 101, 102, 103, 104, 105, 106, 107, 108, 109, 110, 111, 112, 113, 114, 115, 116, 117, 118, 119, 120, 121, 122, 123, 124, 125, 126, 127, 128, 129, 130, 131, 132, 133, 134, 135, 136, 137, 138, 139, 140, 141, 142, 143, 144, 145, 146, 147, 148, 149, 150, 151, 152, 153, 154, 155, 156, 157, 158, 159, 160, 161, 162, 163, 164, 165, 166, 167, 168, 169, 170, 171, 172, 173, 174, 175, 176, 177, 178, 179, 180, 181, 182, 183, 184, 185, 186, 187, 188, 189, 190, 191, 192, 193, 194, 195, 196, 197, 198, 199, 200, 201, 202, 203, 204, 205, 206, 207, 208, 209, 210, 211, 212, 213, 214, 215, 216, 217, 218, 219, 220, 221, 222, 223, 224, 225, 226, 227, 228, 229, 230, 231, 232, 233, 234, 235, 236, 237],
      "AcquisitionTime": ["152725.477500", "152727.477500", "152729.477500", "152731.477500", "152733.477500", "152735.477500", "152737.477500", "152739.477500", "152741.477500", "152743.477500", "152745.477500", "152747.477500", "152749.477500", "152751.477500", "152753.477500", "152755.477500", "152757.477500", "152759.477500", "152801.477500", "152803.477500", "152805.477500", "152807.477500", "152809.477500", "152811.477500", "152813.477500", "152815.477500", "152817.477500", "152819.477500", "152821.477500", "152823.477500", "152825.477500", "152827.477500", "152829.477500", "152831.477500", "152833.477500", "152835.477500", "152837.477500", "152839.477500", "152841.477500", "152843.477500", "152845.477500", "152847.477500", "152849.477500", "152851.477500", "152853.477500", "152855.477500", "152857.477500", "152859.477500", "152901.477500", "152903.477500", "152905.477500", "152907.477500", "152909.477500", "152911.477500", "152913.477500", "152915.477500", "152917.477500", "152919.477500", "152921.477500", "152923.477500", "152925.477500", "152927.477500", "152929.477500", "152931.477500", "152933.477500", "152935.477500", "152937.477500", "152939.477500", "152941.477500", "152943.477500", "152945.477500", "152947.477500", "152949.477500", "152951.477500", "152953.477500", "152955.477500", "152957.477500", "152959.477500", "153001.477500", "153003.477500", "153005.477500", "153007.477500", "153009.477500", "153011.477500", "153013.477500", "153015.477500", "153017.477500", "153019.477500", "153021.477500", "153023.477500", "153025.477500", "153027.477500", "153029.477500", "153031.477500", "153033.477500", "153035.477500", "153037.477500", "153039.477500", "153041.477500", "153043.477500", "153045.477500", "153047.477500", "153049.477500", "153051.477500", "153053.477500", "153055.477500", "153057.477500", "153059.477500", "153101.477500", "153103.477500", "153105.477500", "153107.477500", "153109.477500", "153111.477500", "153113.477500", "153115.477500", "153117.477500", "153119.477500", "153121.477500", "153123.477500", "153125.477500", "153127.477500", "153129.477500", "153131.477500", "153133.477500", "153135.477500", "153137.477500", "153139.477500", "153141.477500", "153143.477500", "153145.477500", "153147.477500", "153149.477500", "153151.477500", "153153.477500", "153155.477500", "153157.477500", "153159.477500", "153201.477500", "153203.477500", "153205.477500", "153207.477500", "153209.477500", "153211.477500", "153213.477500", "153215.477500", "153217.477500", "153219.477500", "153221.477500", "153223.477500", "153225.477500", "153227.477500", "153229.477500", "153231.477500", "153233.477500", "153235.477500", "153237.477500", "153239.477500", "153241.477500", "153243.477500", "153245.477500", "153247.477500", "153249.477500", "153251.477500", "153253.477500", "153255.477500", "153257.477500", "153259.477500", "153301.477500", "153303.477500", "153305.477500", "153307.477500", "153309.477500", "153311.477500", "153313.477500", "153315.477500", "153317.477500", "153319.477500", "153321.477500", "153323.477500", "153325.477500", "153327.477500", "153329.477500", "153331.477500", "153333.477500", "153335.477500", "153337.477500", "153339.477500", "153341.477500", "153343.477500", "153345.477500", "153347.477500", "153349.477500", "153351.477500", "153353.477500", "153355.477500", "153357.477500", "153359.477500", "153401.477500", "153403.477500", "153405.477500", "153407.477500", "153409.477500", "153411.477500", "153413.477500", "153415.477500", "153417.477500", "153419.477500", "153421.477500", "153423.477500", "153425.477500", "153427.477500", "153429.477500", "153431.477500", "153433.477500", "153435.477500", "153437.477500", "153439.477500", "153441.477500", "153443.477500", "153445.477500", "153447.477500", "153449.477500", "153451.477500", "153453.477500", "153455.477500", "153457.477500", "153459.477500", "153501.477500", "153503.477500", "153505.477500", "153507.477500", "153509.477500", "153511.477500", "153513.477500", "153515.477500", "153517.477500"],
      "ContentTime": ["152810.363000", "152810.377000", "152810.380000", "152810.382000", "152810.385000", "152810.387000", "152810.390000", "152810.393000", "152810.395000", "152810.398000", "152810.400000", "152810.403000", "152810.405000", "152810.408000", "152810.411000", "152810.413000", "152810.416000", "152810.419000", "152810.421000", "152810.424000", "152810.427000", "152810.429000", "152850.358000", "152850.361000", "152850.363000", "152850.366000", "152850.369000", "152850.371000", "152850.374000", "152850.376000", "152850.379000", "152850.381000", "152850.384000", "152850.387000", "152850.389000", "152850.392000", "152850.394000", "152850.397000", "152850.399000", "152850.402000", "152850.405000", "152850.407000", "152930.358000", "152930.361000", "152930.364000", "152930.368000", "152930.371000", "152930.374000", "152930.377000", "152930.380000", "152930.384000", "152930.387000", "152930.390000", "152930.393000", "152930.396000", "152930.399000", "152930.402000", "152930.406000", "152930.410000", "152930.414000", "152930.417000", "152930.420000", "153010.358000", "153010.361000", "153010.364000", "153010.367000", "153010.371000", "153010.374000", "153010.377000", "153010.380000", "153010.383000", "153010.386000", "153010.390000", "153010.393000", "153010.396000", "153010.400000", "153010.403000", "153010.406000", "153010.410000", "153010.413000", "153010.416000", "153010.420000", "153050.358000", "153050.361000", "153050.364000", "153050.366000", "153050.369000", "153050.371000", "153050.374000", "153050.377000", "153050.379000", "153050.382000", "153050.384000", "153050.387000", "153050.390000", "153050.392000", "153050.395000", "153050.397000", "153050.400000", "153050.403000", "153050.405000", "153050.408000", "153130.358000", "153130.361000", "153130.364000", "153130.368000", "153130.372000", "153130.375000", "153130.378000", "153130.381000", "153130.385000", "153130.388000", "153130.391000", "153130.395000", "153130.398000", "153130.401000", "153130.404000", "153130.407000", "153130.410000", "153130.414000", "153130.417000", "153130.420000", "153210.359000", "153210.363000", "153210.367000", "153210.370000", "153210.374000", "153210.377000", "153210.381000", "153210.384000", "153210.387000", "153210.390000", "153210.394000", "153210.397000", "153210.401000", "153210.404000", "153210.407000", "153210.411000", "153210.414000", "153210.417000", "153210.420000", "153210.424000", "153250.357000", "153250.359000", "153250.362000", "153250.364000", "153250.367000", "153250.369000", "153250.372000", "153250.374000", "153250.376000", "153250.379000", "153250.381000", "153250.384000", "153250.386000", "153250.388000", "153250.391000", "153250.393000", "153250.396000", "153250.398000", "153250.401000", "153250.403000", "153330.360000", "153330.364000", "153330.367000", "153330.370000", "153330.374000", "153330.377000", "153330.380000", "153330.383000", "153330.386000", "153330.390000", "153330.393000", "153330.396000", "153330.399000", "153330.403000", "153330.406000", "153330.409000", "153330.412000", "153330.416000", "153330.419000", "153330.422000", "153410.358000", "153410.362000", "153410.365000", "153410.368000", "153410.371000", "153410.375000", "153410.378000", "153410.381000", "153410.385000", "153410.388000", "153410.391000", "153410.395000", "153410.399000", "153410.402000", "153410.423000", "153410.427000", "153410.430000", "153410.433000", "153410.436000", "153410.440000", "153450.356000", "153450.359000", "153450.362000", "153450.366000", "153450.369000", "153450.372000", "153450.374000", "153450.377000", "153450.380000", "153450.382000", "153450.385000", "153450.387000", "153450.390000", "153450.393000", "153450.395000", "153450.398000", "153450.400000", "153450.403000", "153450.406000", "153450.408000", "153518.542000", "153518.546000", "153518.550000", "153518.553000", "153518.556000", "153518.560000", "153518.563000", "153518.566000", "153518.568000", "153518.571000", "153518.575000", "153518.579000", "153518.582000", "153518.589000", "153518.592000"],
      "InstanceCreationTime": ["152810.363000", "152810.377000", "152810.380000", "152810.382000", "152810.385000", "152810.387000", "152810.390000", "152810.393000", "152810.395000", "152810.398000", "152810.400000", "152810.403000", "152810.405000", "152810.408000", "152810.411000", "152810.413000", "152810.416000", "152810.419000", "152810.421000", "152810.424000", "152810.427000", "152810.429000", "152850.358000", "152850.361000", "152850.363000", "152850.366000", "152850.369000", "152850.371000", "152850.374000", "152850.376000", "152850.379000", "152850.381000", "152850.384000", "152850.387000", "152850.389000", "152850.392000", "152850.394000", "152850.397000", "152850.399000", "152850.402000", "152850.405000", "152850.407000", "152930.358000", "152930.361000", "152930.364000", "152930.368000", "152930.371000", "152930.374000", "152930.377000", "152930.380000", "152930.384000", "152930.387000", "152930.390000", "152930.393000", "152930.396000", "152930.399000", "152930.402000", "152930.406000", "152930.410000", "152930.414000", "152930.417000", "152930.420000", "153010.358000", "153010.361000", "153010.364000", "153010.367000", "153010.371000", "153010.374000", "153010.377000", "153010.380000", "153010.383000", "153010.386000", "153010.390000", "153010.393000", "153010.396000", "153010.400000", "153010.403000", "153010.406000", "153010.410000", "153010.413000", "153010.416000", "153010.420000", "153050.358000", "153050.361000", "153050.364000", "153050.366000", "153050.369000", "153050.371000", "153050.374000", "153050.377000", "153050.379000", "153050.382000", "153050.384000", "153050.387000", "153050.390000", "153050.392000", "153050.395000", "153050.397000", "153050.400000", "153050.403000", "153050.405000", "153050.408000", "153130.358000", "153130.361000", "153130.364000", "153130.368000", "153130.372000", "153130.375000", "153130.378000", "153130.381000", "153130.385000", "153130.388000", "153130.391000", "153130.395000", "153130.398000", "153130.401000", "153130.404000", "153130.407000", "153130.410000", "153130.414000", "153130.417000", "153130.420000", "153210.359000", "153210.363000", "153210.367000", "153210.370000", "153210.374000", "153210.377000", "153210.381000", "153210.384000", "153210.387000", "153210.390000", "153210.394000", "153210.397000", "153210.401000", "153210.404000", "153210.407000", "153210.411000", "153210.414000", "153210.417000", "153210.420000", "153210.424000", "153250.357000", "153250.359000", "153250.362000", "153250.364000", "153250.367000", "153250.369000", "153250.372000", "153250.374000", "153250.376000", "153250.379000", "153250.381000", "153250.384000", "153250.386000", "153250.388000", "153250.391000", "153250.393000", "153250.396000", "153250.398000", "153250.401000", "153250.403000", "153330.360000", "153330.364000", "153330.367000", "153330.370000", "153330.374000", "153330.377000", "153330.380000", "153330.383000", "153330.386000", "153330.390000", "153330.393000", "153330.396000", "153330.399000", "153330.403000", "153330.406000", "153330.409000", "153330.412000", "153330.416000", "153330.419000", "153330.422000", "153410.358000", "153410.362000", "153410.365000", "153410.368000", "153410.371000", "153410.375000", "153410.378000", "153410.381000", "153410.385000", "153410.388000", "153410.391000", "153410.395000", "153410.399000", "153410.402000", "153410.423000", "153410.427000", "153410.430000", "153410.433000", "153410.436000", "153410.440000", "153450.356000", "153450.359000", "153450.362000", "153450.366000", "153450.369000", "153450.372000", "153450.374000", "153450.377000", "153450.380000", "153450.382000", "153450.385000", "153450.387000", "153450.390000", "153450.393000", "153450.395000", "153450.398000", "153450.400000", "153450.403000", "153450.406000", "153450.408000", "153518.542000", "153518.546000", "153518.550000", "153518.553000", "153518.556000", "153518.560000", "153518.563000", "153518.566000", "153518.568000", "153518.571000", "153518.575000", "153518.579000", "153518.582000", "153518.589000", "153518.592000"],
      "InstanceNumber": [1, 2, 3, 4, 5, 6, 7, 8, 9, 10, 11, 12, 13, 14, 15, 16, 17, 18, 19, 20, 21, 22, 23, 24, 25, 26, 27, 28, 29, 30, 31, 32, 33, 34, 35, 36, 37, 38, 39, 40, 41, 42, 43, 44, 45, 46, 47, 48, 49, 50, 51, 52, 53, 54, 55, 56, 57, 58, 59, 60, 61, 62, 63, 64, 65, 66, 67, 68, 69, 70, 71, 72, 73, 74, 75, 76, 77, 78, 79, 80, 81, 82, 83, 84, 85, 86, 87, 88, 89, 90, 91, 92, 93, 94, 95, 96, 97, 98, 99, 100, 101, 102, 103, 104, 105, 106, 107, 108, 109, 110, 111, 112, 113, 114, 115, 116, 117, 118, 119, 120, 121, 122, 123, 124, 125, 126, 127, 128, 129, 130, 131, 132, 133, 134, 135, 136, 137, 138, 139, 140, 141, 142, 143, 144, 145, 146, 147, 148, 149, 150, 151, 152, 153, 154, 155, 156, 157, 158, 159, 160, 161, 162, 163, 164, 165, 166, 167, 168, 169, 170, 171, 172, 173, 174, 175, 176, 177, 178, 179, 180, 181, 182, 183, 184, 185, 186, 187, 188, 189, 190, 191, 192, 193, 194, 195, 196, 197, 198, 199, 200, 201, 202, 203, 204, 205, 206, 207, 208, 209, 210, 211, 212, 213, 214, 215, 216, 217, 218, 219, 220, 221, 222, 223, 224, 225, 226, 227, 228, 229, 230, 231, 232, 233, 234, 235, 236, 237],
      "LargestImagePixelValue": [2050, 1625, 1909, 1605, 1872, 1612, 1962, 1607, 2527, 1595, 2065, 1717, 1959, 1634, 1841, 1740, 1870, 1721, 2205, 1605, 2000, 1586, 1985, 1636, 1744, 1941, 1803, 2033, 1754, 1974, 1706, 2037, 1670, 1966, 1592, 1674, 2085, 1733, 2605, 1589, 1913, 1582, 2062, 1876, 1773, 2128, 1626, 1887, 1953, 1700, 2201, 1565, 2162, 1567, 1784, 1659, 1962, 1601, 2234, 1583, 2530, 1572, 1985, 1727, 2322, 1553, 1947, 1699, 2225, 1549, 1799, 2118, 1621, 1807, 1591, 2019, 1975, 1772, 2068, 1704, 2034, 1702, 2248, 1605, 1993, 1635, 2279, 1552, 1874, 1678, 1877, 1968, 1889, 2089, 1708, 2013, 1698, 2463, 1582, 2207, 1575, 1795, 1585, 2156, 1830, 2341, 1537, 1856, 2055, 1803, 1884, 1624, 1958, 2513, 1656, 1888, 1597, 2413, 1570, 1868, 1625, 2425, 1612, 1944, 1927, 1831, 1922, 1898, 2198, 1753, 2557, 1552, 2359, 1671, 1854, 1704, 1867, 2133, 1599, 2515, 1553, 1899, 1704, 1993, 1727, 1972, 1846, 2209, 1659, 2044, 1780, 2337, 1574, 1835, 1624, 1870, 1631, 1773, 1824, 2139, 1791, 2704, 1610, 2413, 1678, 1938, 1734, 2175, 1685, 1962, 1721, 1760, 1946, 1641, 2121, 1683, 1721, 2111, 2117, 1670, 1811, 1859, 2154, 1704, 1626, 2241, 1642, 2275, 1591, 2434, 1568, 2064, 1683, 1802, 1805, 1791, 1873, 2109, 1808, 2105, 1709, 2117, 1797, 2021, 1708, 2361, 1619, 2273, 1730, 1844, 1651, 1828, 2495, 1759, 1985, 1665, 2586, 1763, 2070, 1643, 2434, 1786, 1884, 1642, 2445, 1597, 2231, 1678, 1819, 1647, 1857, 1759, 1643, 1636, 2623, 2283, 1700],
      "WindowCenter": [680.0, 679.0, 679.0, 677.0, 679.0, 678.0, 679.0, 678.0, 680.0, 678.0, 680.0, 678.0, 679.0, 678.0, 679.0, 679.0, 679.0, 679.0, 680.0, 677.0, 679.0, 677.0, 679.0, 677.0, 678.0, 679.0, 678.0, 679.0, 678.0, 679.0, 678.0, 679.0, 678.0, 679.0, 678.0, 679.0, 680.0, 679.0, 680.0, 678.0, 679.0, 679.0, 680.0, 679.0, 679.0, 680.0, 678.0, 679.0, 679.0, 678.0, 679.0, 678.0, 679.0, 678.0, 679.0, 678.0, 679.0, 678.0, 680.0, 678.0, 680.0, 678.0, 679.0, 679.0, 680.0, 678.0, 679.0, 679.0, 680.0, 677.0, 678.0, 680.0, 678.0, 678.0, 678.0, 679.0, 679.0, 679.0, 679.0, 678.0, 679.0, 678.0, 679.0, 678.0, 679.0, 678.0, 680.0, 678.0, 679.0, 678.0, 679.0, 679.0, 679.0, 679.0, 679.0, 680.0, 679.0, 681.0, 678.0, 680.0, 678.0, 679.0, 679.0, 680.0, 680.0, 681.0, 677.0, 678.0, 679.0, 679.0, 678.0, 678.0, 679.0, 680.0, 678.0, 679.0, 678.0, 681.0, 678.0, 679.0, 679.0, 680.0, 678.0, 679.0, 680.0, 678.0, 680.0, 679.0, 680.0, 678.0, 680.0, 677.0, 680.0, 678.0, 678.0, 678.0, 678.0, 679.0, 678.0, 680.0, 677.0, 680.0, 679.0, 680.0, 679.0, 679.0, 678.0, 679.0, 678.0, 680.0, 679.0, 680.0, 678.0, 678.0, 678.0, 679.0, 678.0, 681.0, 679.0, 679.0, 678.0, 680.0, 678.0, 680.0, 678.0, 679.0, 679.0, 680.0, 679.0, 679.0, 679.0, 679.0, 680.0, 679.0, 680.0, 679.0, 679.0, 680.0, 679.0, 678.0, 679.0, 679.0, 680.0, 678.0, 678.0, 680.0, 678.0, 680.0, 678.0, 680.0, 678.0, 680.0, 679.0, 679.0, 679.0, 679.0, 679.0, 680.0, 679.0, 680.0, 678.0, 680.0, 679.0, 680.0, 678.0, 680.0, 678.0, 680.0, 679.0, 679.0, 678.0, 679.0, 680.0, 679.0, 679.0, 678.0, 680.0, 678.0, 679.0, 678.0, 680.0, 678.0, 679.0, 678.0, 680.0, 678.0, 680.0, 678.0, 679.0, 678.0, 679.0, 679.0, 680.0, 679.0, 681.0, 680.0, 678.0],
      "WindowWidth": [1509.0, 1503.0, 1505.0, 1499.0, 1504.0, 1503.0, 1506.0, 1503.0, 1508.0, 1500.0, 1507.0, 1503.0, 1505.0, 1502.0, 1505.0, 1506.0, 1506.0, 1503.0, 1507.0, 1500.0, 1504.0, 1499.0, 1503.0, 1499.0, 1501.0, 1503.0, 1502.0, 1505.0, 1502.0, 1504.0, 1501.0, 1505.0, 1501.0, 1504.0, 1501.0, 1504.0, 1509.0, 1505.0, 1510.0, 1501.0, 1505.0, 1504.0, 1509.0, 1506.0, 1503.0, 1507.0, 1501.0, 1504.0, 1505.0, 1501.0, 1506.0, 1500.0, 1506.0, 1500.0, 1503.0, 1502.0, 1505.0, 1503.0, 1509.0, 1500.0, 1509.0, 1500.0, 1505.0, 1503.0, 1509.0, 1500.0, 1505.0, 1503.0, 1508.0, 1499.0, 1502.0, 1506.0, 1501.0, 1503.0, 1502.0, 1506.0, 1505.0, 1503.0, 1506.0, 1502.0, 1506.0, 1501.0, 1505.0, 1500.0, 1505.0, 1502.0, 1507.0, 1500.0, 1503.0, 1502.0, 1504.0, 1505.0, 1505.0, 1505.0, 1503.0, 1507.0, 1503.0, 1510.0, 1500.0, 1508.0, 1501.0, 1503.0, 1503.0, 1509.0, 1506.0, 1510.0, 1498.0, 1502.0, 1505.0, 1503.0, 1502.0, 1500.0, 1503.0, 1509.0, 1502.0, 1504.0, 1500.0, 1509.0, 1501.0, 1505.0, 1504.0, 1510.0, 1502.0, 1506.0, 1507.0, 1503.0, 1506.0, 1504.0, 1507.0, 1502.0, 1509.0, 1499.0, 1508.0, 1502.0, 1503.0, 1502.0, 1502.0, 1504.0, 1501.0, 1510.0, 1500.0, 1507.0, 1504.0, 1506.0, 1504.0, 1506.0, 1503.0, 1507.0, 1501.0, 1506.0, 1504.0, 1508.0, 1500.0, 1503.0, 1501.0, 1504.0, 1502.0, 1509.0, 1503.0, 1505.0, 1502.0, 1508.0, 1500.0, 1509.0, 1502.0, 1506.0, 1503.0, 1507.0, 1503.0, 1505.0, 1503.0, 1504.0, 1507.0, 1503.0, 1509.0, 1504.0, 1503.0, 1507.0, 1506.0, 1501.0, 1504.0, 1505.0, 1507.0, 1501.0, 1502.0, 1507.0, 1501.0, 1507.0, 1501.0, 1509.0, 1500.0, 1507.0, 1503.0, 1504.0, 1505.0, 1505.0, 1504.0, 1506.0, 1503.0, 1506.0, 1503.0, 1507.0, 1504.0, 1506.0, 1502.0, 1509.0, 1500.0, 1508.0, 1503.0, 1503.0, 1502.0, 1504.0, 1508.0, 1503.0, 1506.0, 1502.0, 1510.0, 1503.0, 1504.0, 1500.0, 1509.0, 1502.0, 1504.0, 1502.0, 1509.0, 1500.0, 1508.0, 1501.0, 1503.0, 1501.0, 1503.0, 1503.0, 1506.0, 1505.0, 1510.0, 1507.0, 1501.0]
    },
    "slices": {}
  }
}