{
  "AcquisitionMatrixPE": 70,
  "AcquisitionNumber": 1,
  "AcquisitionTime": "15:36:56.040000",
  "BandwidthPerPixelPhaseEncode": 38.873,
  "BaseResolution": 70,
  "BodyPartExamined": "HEAD",
  "ConsistencyInfo": "N4_VE11B_LATEST_20150530",
  "ConversionSoftware": "dcm2niix",
  "ConversionSoftwareVersion": "v1.0.20190410  GCC6.3.0",
  "DerivedVendorReportedEchoSpacing": 0.000489996,
  "DeviceSerialNumber": "66088",
  "DwellTime": 2.9e-06,
  "EchoTime": 0.03,
  "EchoTrainLength": 53,
  "EffectiveEchoSpacing": 0.000367497,
  "FlipAngle": 90,
  "ImageOrientationPatientDICOM": [0.996649, -0.0589471, 0.0567076, 0.076688, 0.914547, -0.397143],
  "ImageType": [
    "ORIGINAL",
    "PRIMARY",
    "M",
    "ND",
    "NORM",
    "MOSAIC"
],
  "ImagingFrequency": 123.191,
  "InPlanePhaseEncodingDirectionDICOM": "COL",
  "InstitutionAddress": "Street_StreetNo_City_District_IR_ZIP",
  "InstitutionName": "NBML",
  "InstitutionalDepartmentName": "Department",
  "MRAcquisitionType": "2D",
  "MagneticFieldStrength": 3,
  "Manufacturer": "Siemens",
  "ManufacturersModelName": "Prisma",
  "Modality": "MR",
  "ParallelReductionFactorInPlane": 2,
  "PartialFourier": 1,
  "PatientPosition": "HFS",
  "PercentPhaseFOV": 100,
  "PhaseEncodingDirection": "j-",
  "PhaseEncodingSteps": 105,
  "PhaseOversampling": 0.5,
  "PhaseResolution": 1,
  "PixelBandwidth": 2465,
  "ProcedureStepDescription": "NBML_Project_P_96169_Ebrahiminiya-Khaliq",
  "ProtocolName": "ep2d_p2_Task_3.5_measurment:237",
  "PulseSequenceDetails": "%SiemensSeq%_ep2d_pace",
  "ReceiveCoilActiveElements": "HC1-7;NC1",
  "ReceiveCoilName": "HeadNeck_64",
  "ReconMatrixPE": 70,
  "RefLinesPE": 24,
  "RepetitionTime": 2,
  "SAR": 0.0792012,
  "ScanOptions": "FS",
  "ScanningSequence": "EP",
  "SequenceName": "_epfid2d1_70",
  "SequenceVariant": "SK_OSP",
  "SeriesDescription": "ep2d_p2_Task_3.5_measurment:237",
  "SeriesNumber": 9,
  "ShimSetting": [2592, -4490, -3357, 281, 8, -102, -142, -41],
  "SliceThickness": 3.5,
  "SliceTiming": [0.99, 0, 1.0475, 0.0575, 1.1075, 0.1175, 1.165, 0.175, 1.2225, 0.2325, 1.2825, 0.2925, 1.34, 0.35, 1.3975, 0.4075, 1.455, 0.4675, 1.515, 0.525, 1.5725, 0.5825, 1.63, 0.64, 1.69, 0.7, 1.7475, 0.7575, 1.805, 0.815, 1.865, 0.875, 1.9225, 0.9325],
  "SoftwareVersions": "syngo_MR_E11",
  "SpacingBetweenSlices": 3.85,
  "StationName": "AWP66088",
  "TaskName": "categorySelectivity",
  "TotalReadoutTime": 0.0253573,
  "TxRefAmp": 220.21,
  "dcmmeta_affine": [
    [-3.5309855937957764, 0.27169448137283325, 0.10953766107559204, 121.57103729248047],
    [0.20884127914905548, 3.2401092052459717, -1.5406213998794556, -97.56075286865234],
    [0.20090709626674652, 1.40702223777771, 3.526611328125, -90.68734741210938],
    [0.0, 0.0, 0.0, 1.0]
],
  "dcmmeta_reorient_transform": [
    [0.0, -1.0, 0.0, 69.0],
    [1.0, 0.0, 0.0, 0.0],
    [0.0, 0.0, 1.0, 0.0],
    [0.0, 0.0, 0.0, 1.0]
],
  "dcmmeta_shape": [70, 70, 34, 237],
  "dcmmeta_slice_dim": 2,
  "dcmmeta_version": 0.6,
  "global": {
    "const": {
      "AccessionNumber": "M.BRZ",
      "AcquisitionMatrix": [70, 0, 0, 70],
      "AngioFlag": "N",
      "BitsAllocated": 16,
      "BitsStored": 12,
      "BodyPartExamined": "HEAD",
      "Columns": 420,
      "EchoNumbers": 1,
      "EchoTime": 30.0,
      "EchoTrainLength": 53,
      "FlipAngle": 90.0,
      "HighBit": 11,
      "ImageOrientationPatient": [0.99664912487402, -0.058947134234, 0.05670764722193, 0.07668795935274, 0.91454693204716, -0.3971433821348],
      "ImagePositionPatient": [-805.78695509344, -656.47866139017, 217.46734759766],
      "ImageType": [
        "ORIGINAL",
        "PRIMARY",
        "M",
        "ND",
        "NORM",
        "MOSAIC"
],
      "ImagedNucleus": "1H",
      "ImagingFrequency": 123.191294,
      "InPlanePhaseEncodingDirection": "COL",
      "MRAcquisitionType": "2D",
      "MagneticFieldStrength": 3.0,
      "Manufacturer": "SIEMENS",
      "ManufacturerModelName": "Prisma",
      "Modality": "MR",
      "NumberOfAverages": 1.0,
      "NumberOfPhaseEncodingSteps": 105,
      "PercentPhaseFieldOfView": 100.0,
      "PercentSampling": 100.0,
      "PerformedProcedureStepStartTime": "144144.494000",
      "PhotometricInterpretation": "MONOCHROME2",
      "PixelBandwidth": 2465.0,
      "PixelRepresentation": 0,
      "PixelSpacing": [3.542857170105, 3.542857170105],
      "ProtocolName": "ep2d_p2_Task_3.5_measurment:237",
      "RepetitionTime": 2000.0,
      "Rows": 420,
      "SAR": 0.07920119930609,
      "SamplesPerPixel": 1,
      "ScanOptions": "FS",
      "ScanningSequence": "EP",
      "SequenceName": "*epfid2d1_70",
      "SequenceVariant": [
        "SK",
        "OSP"
],
      "SeriesDescription": "ep2d_p2_Task_3.5_measurment:237",
      "SeriesNumber": 9,
      "SeriesTime": "153741.485000",
      "SliceLocation": -40.570971194035,
      "SliceThickness": 3.5,
      "SmallestImagePixelValue": 0,
      "SoftwareVersions": "syngo MR E11",
      "SpacingBetweenSlices": 3.8500000016861,
      "SpecificCharacterSet": "ISO_IR 100",
      "StudyID": "1",
      "StudyTime": "144144.418000",
      "TransmitCoilName": "Body",
      "VariableFlipAngleFlag": "N",
      "WindowCenterWidthExplanation": "Algo1",
      "dBdt": 0.0},
    "slices": {}
  },
  "time": {
    "samples": {
      "AcquisitionNumber": [1, 2, 3, 4, 5, 6, 7, 8, 9, 10, 11, 12, 13, 14, 15, 16, 17, 18, 19, 20, 21, 22, 23, 24, 25, 26, 27, 28, 29, 30, 31, 32, 33, 34, 35, 36, 37, 38, 39, 40, 41, 42, 43, 44, 45, 46, 47, 48, 49, 50, 51, 52, 53, 54, 55, 56, 57, 58, 59, 60, 61, 62, 63, 64, 65, 66, 67, 68, 69, 70, 71, 72, 73, 74, 75, 76, 77, 78, 79, 80, 81, 82, 83, 84, 85, 86, 87, 88, 89, 90, 91, 92, 93, 94, 95, 96, 97, 98, 99, 100, 101, 102, 103, 104, 105, 106, 107, 108, 109, 110, 111, 112, 113, 114, 115, 116, 117, 118, 119, 120, 121, 122, 123, 124, 125, 126, 127, 128, 129, 130, 131, 132, 133, 134, 135, 136, 137, 138, 139, 140, 141, 142, 143, 144, 145, 146, 147, 148, 149, 150, 151, 152, 153, 154, 155, 156, 157, 158, 159, 160, 161, 162, 163, 164, 165, 166, 167, 168, 169, 170, 171, 172, 173, 174, 175, 176, 177, 178, 179, 180, 181, 182, 183, 184, 185, 186, 187, 188, 189, 190, 191, 192, 193, 194, 195, 196, 197, 198, 199, 200, 201, 202, 203, 204, 205, 206, 207, 208, 209, 210, 211, 212, 213, 214, 215, 216, 217, 218, 219, 220, 221, 222, 223, 224, 225, 226, 227, 228, 229, 230, 231, 232, 233, 234, 235, 236, 237],
      "AcquisitionTime": ["153656.040000", "153658.040000", "153700.040000", "153702.040000", "153704.040000", "153706.040000", "153708.040000", "153710.040000", "153712.040000", "153714.040000", "153716.040000", "153718.040000", "153720.040000", "153722.040000", "153724.040000", "153726.040000", "153728.040000", "153730.040000", "153732.040000", "153734.040000", "153736.040000", "153738.040000", "153740.040000", "153742.040000", "153744.040000", "153746.040000", "153748.040000", "153750.040000", "153752.040000", "153754.040000", "153756.040000", "153758.040000", "153800.040000", "153802.040000", "153804.040000", "153806.040000", "153808.040000", "153810.040000", "153812.040000", "153814.040000", "153816.040000", "153818.040000", "153820.040000", "153822.040000", "153824.040000", "153826.040000", "153828.040000", "153830.040000", "153832.040000", "153834.040000", "153836.040000", "153838.040000", "153840.040000", "153842.040000", "153844.040000", "153846.040000", "153848.040000", "153850.040000", "153852.040000", "153854.040000", "153856.040000", "153858.040000", "153900.040000", "153902.040000", "153904.040000", "153906.040000", "153908.040000", "153910.040000", "153912.040000", "153914.040000", "153916.040000", "153918.040000", "153920.040000", "153922.040000", "153924.040000", "153926.040000", "153928.040000", "153930.040000", "153932.040000", "153934.040000", "153936.040000", "153938.040000", "153940.040000", "153942.040000", "153944.040000", "153946.040000", "153948.040000", "153950.040000", "153952.040000", "153954.040000", "153956.040000", "153958.040000", "154000.040000", "154002.040000", "154004.040000", "154006.040000", "154008.040000", "154010.040000", "154012.040000", "154014.040000", "154016.040000", "154018.040000", "154020.040000", "154022.040000", "154024.040000", "154026.040000", "154028.040000", "154030.040000", "154032.040000", "154034.040000", "154036.040000", "154038.040000", "154040.040000", "154042.040000", "154044.040000", "154046.040000", "154048.040000", "154050.040000", "154052.040000", "154054.040000", "154056.040000", "154058.040000", "154100.040000", "154102.040000", "154104.040000", "154106.040000", "154108.040000", "154110.040000", "154112.040000", "154114.040000", "154116.040000", "154118.040000", "154120.040000", "154122.040000", "154124.040000", "154126.040000", "154128.040000", "154130.040000", "154132.040000", "154134.040000", "154136.040000", "154138.040000", "154140.040000", "154142.040000", "154144.040000", "154146.040000", "154148.040000", "154150.040000", "154152.040000", "154154.040000", "154156.040000", "154158.040000", "154200.040000", "154202.040000", "154204.040000", "154206.040000", "154208.040000", "154210.040000", "154212.040000", "154214.040000", "154216.040000", "154218.040000", "154220.040000", "154222.040000", "154224.040000", "154226.040000", "154228.040000", "154230.040000", "154232.040000", "154234.040000", "154236.040000", "154238.040000", "154240.040000", "154242.040000", "154244.040000", "154246.040000", "154248.040000", "154250.040000", "154252.040000", "154254.040000", "154256.040000", "154258.040000", "154300.040000", "154302.040000", "154304.040000", "154306.040000", "154308.040000", "154310.040000", "154312.040000", "154314.040000", "154316.040000", "154318.040000", "154320.040000", "154322.040000", "154324.040000", "154326.040000", "154328.040000", "154330.040000", "154332.040000", "154334.040000", "154336.040000", "154338.040000", "154340.040000", "154342.040000", "154344.040000", "154346.040000", "154348.040000", "154350.040000", "154352.040000", "154354.040000", "154356.040000", "154358.040000", "154400.040000", "154402.040000", "154404.040000", "154406.040000", "154408.040000", "154410.040000", "154412.040000", "154414.040000", "154416.040000", "154418.040000", "154420.040000", "154422.040000", "154424.040000", "154426.040000", "154428.040000", "154430.040000", "154432.040000", "154434.040000", "154436.040000", "154438.040000", "154440.040000", "154442.040000", "154444.040000", "154446.040000", "154448.040000"],
      "ContentTime": ["153741.490000", "153741.494000", "153741.497000", "153741.501000", "153741.505000", "153741.509000", "153741.512000", "153741.515000", "153741.519000", "153741.522000", "153741.525000", "153741.528000", "153741.532000", "153741.537000", "153741.541000", "153741.544000", "153741.547000", "153741.551000", "153741.562000", "153741.566000", "153741.569000", "153741.572000", "153821.482000", "153821.485000", "153821.487000", "153821.489000", "153821.492000", "153821.494000", "153821.497000", "153821.499000", "153821.502000", "153821.505000", "153821.507000", "153821.509000", "153821.512000", "153821.514000", "153821.517000", "153821.519000", "153821.522000", "153821.524000", "153821.526000", "153821.529000", "153901.483000", "153901.487000", "153901.490000", "153901.493000", "153901.497000", "153901.500000", "153901.504000", "153901.507000", "153901.510000", "153901.513000", "153901.517000", "153901.520000", "153901.523000", "153901.527000", "153901.531000", "153901.535000", "153901.539000", "153901.542000", "153901.545000", "153901.548000", "153941.483000", "153941.487000", "153941.490000", "153941.493000", "153941.497000", "153941.501000", "153941.504000", "153941.507000", "153941.511000", "153941.514000", "153941.518000", "153941.521000", "153941.524000", "153941.528000", "153941.531000", "153941.534000", "153941.538000", "153941.542000", "153941.545000", "153941.548000", "154021.482000", "154021.485000", "154021.487000", "154021.490000", "154021.492000", "154021.495000", "154021.498000", "154021.501000", "154021.504000", "154021.506000", "154021.509000", "154021.511000", "154021.514000", "154021.516000", "154021.519000", "154021.522000", "154021.524000", "154021.527000", "154021.530000", "154021.533000", "154101.483000", "154101.486000", "154101.490000", "154101.493000", "154101.498000", "154101.501000", "154101.504000", "154101.508000", "154101.511000", "154101.515000", "154101.518000", "154101.521000", "154101.525000", "154101.528000", "154101.532000", "154101.535000", "154101.539000", "154101.542000", "154101.545000", "154101.549000", "154141.483000", "154141.487000", "154141.490000", "154141.493000", "154141.496000", "154141.500000", "154141.503000", "154141.506000", "154141.509000", "154141.532000", "154141.535000", "154141.538000", "154141.542000", "154141.545000", "154141.548000", "154141.566000", "154141.569000", "154141.573000", "154141.576000", "154141.579000", "154221.483000", "154221.485000", "154221.488000", "154221.490000", "154221.493000", "154221.495000", "154221.498000", "154221.501000", "154221.503000", "154221.506000", "154221.508000", "154221.511000", "154221.513000", "154221.515000", "154221.518000", "154221.520000", "154221.523000", "154221.525000", "154221.528000", "154221.530000", "154241.483000", "154241.487000", "154241.490000", "154241.493000", "154241.496000", "154241.500000", "154241.503000", "154241.507000", "154241.510000", "154241.513000", "154321.483000", "154321.487000", "154321.490000", "154321.494000", "154321.498000", "154321.501000", "154321.505000", "154321.508000", "154321.511000", "154321.514000", "154321.518000", "154321.521000", "154321.524000", "154321.536000", "154321.539000", "154321.547000", "154321.550000", "154321.553000", "154321.557000", "154321.560000", "154401.486000", "154401.493000", "154401.496000", "154401.500000", "154401.504000", "154401.507000", "154401.511000", "154401.515000", "154401.518000", "154401.521000", "154401.525000", "154401.531000", "154401.537000", "154401.540000", "154401.544000", "154401.547000", "154401.551000", "154401.554000", "154401.558000", "154401.561000", "154441.485000", "154441.488000", "154441.492000", "154441.497000", "154441.500000", "154441.503000", "154441.507000", "154441.510000", "154441.513000", "154441.521000", "154441.524000", "154441.531000", "154441.534000", "154441.537000", "154441.541000", "154441.548000", "154441.551000", "154441.554000", "154441.557000", "154441.563000", "154449.514000", "154449.517000", "154449.520000", "154449.522000", "154449.525000"],
      "InstanceCreationTime": ["153741.490000", "153741.494000", "153741.497000", "153741.501000", "153741.505000", "153741.509000", "153741.512000", "153741.515000", "153741.519000", "153741.522000", "153741.525000", "153741.528000", "153741.532000", "153741.537000", "153741.541000", "153741.544000", "153741.547000", "153741.551000", "153741.562000", "153741.566000", "153741.569000", "153741.572000", "153821.482000", "153821.485000", "153821.487000", "153821.489000", "153821.492000", "153821.494000", "153821.497000", "153821.499000", "153821.502000", "153821.505000", "153821.507000", "153821.509000", "153821.512000", "153821.514000", "153821.517000", "153821.519000", "153821.522000", "153821.524000", "153821.526000", "153821.529000", "153901.483000", "153901.487000", "153901.490000", "153901.493000", "153901.497000", "153901.500000", "153901.504000", "153901.507000", "153901.510000", "153901.513000", "153901.517000", "153901.520000", "153901.523000", "153901.527000", "153901.531000", "153901.535000", "153901.539000", "153901.542000", "153901.545000", "153901.548000", "153941.483000", "153941.487000", "153941.490000", "153941.493000", "153941.497000", "153941.501000", "153941.504000", "153941.507000", "153941.511000", "153941.514000", "153941.518000", "153941.521000", "153941.524000", "153941.528000", "153941.531000", "153941.534000", "153941.538000", "153941.542000", "153941.545000", "153941.548000", "154021.482000", "154021.485000", "154021.487000", "154021.490000", "154021.492000", "154021.495000", "154021.498000", "154021.501000", "154021.504000", "154021.506000", "154021.509000", "154021.511000", "154021.514000", "154021.516000", "154021.519000", "154021.522000", "154021.524000", "154021.527000", "154021.530000", "154021.533000", "154101.483000", "154101.486000", "154101.490000", "154101.493000", "154101.498000", "154101.501000", "154101.504000", "154101.508000", "154101.511000", "154101.515000", "154101.518000", "154101.521000", "154101.525000", "154101.528000", "154101.532000", "154101.535000", "154101.539000", "154101.542000", "154101.545000", "154101.549000", "154141.483000", "154141.487000", "154141.490000", "154141.493000", "154141.496000", "154141.500000", "154141.503000", "154141.506000", "154141.509000", "154141.532000", "154141.535000", "154141.538000", "154141.542000", "154141.545000", "154141.548000", "154141.566000", "154141.569000", "154141.573000", "154141.576000", "154141.579000", "154221.483000", "154221.485000", "154221.488000", "154221.490000", "154221.493000", "154221.495000", "154221.498000", "154221.501000", "154221.503000", "154221.506000", "154221.508000", "154221.511000", "154221.513000", "154221.515000", "154221.518000", "154221.520000", "154221.523000", "154221.525000", "154221.528000", "154221.530000", "154241.483000", "154241.487000", "154241.490000", "154241.493000", "154241.496000", "154241.500000", "154241.503000", "154241.507000", "154241.510000", "154241.513000", "154321.483000", "154321.487000", "154321.490000", "154321.494000", "154321.498000", "154321.501000", "154321.505000", "154321.508000", "154321.511000", "154321.514000", "154321.518000", "154321.521000", "154321.524000", "154321.536000", "154321.539000", "154321.547000", "154321.550000", "154321.553000", "154321.557000", "154321.560000", "154401.486000", "154401.493000", "154401.496000", "154401.500000", "154401.504000", "154401.507000", "154401.511000", "154401.515000", "154401.518000", "154401.521000", "154401.525000", "154401.531000", "154401.537000", "154401.540000", "154401.544000", "154401.547000", "154401.551000", "154401.554000", "154401.558000", "154401.561000", "154441.485000", "154441.488000", "154441.492000", "154441.497000", "154441.500000", "154441.503000", "154441.507000", "154441.510000", "154441.513000", "154441.521000", "154441.524000", "154441.531000", "154441.534000", "154441.537000", "154441.541000", "154441.548000", "154441.551000", "154441.554000", "154441.557000", "154441.563000", "154449.514000", "154449.517000", "154449.520000", "154449.522000", "154449.525000"],
      "InstanceNumber": [1, 2, 3, 4, 5, 6, 7, 8, 9, 10, 11, 12, 13, 14, 15, 16, 17, 18, 19, 20, 21, 22, 23, 24, 25, 26, 27, 28, 29, 30, 31, 32, 33, 34, 35, 36, 37, 38, 39, 40, 41, 42, 43, 44, 45, 46, 47, 48, 49, 50, 51, 52, 53, 54, 55, 56, 57, 58, 59, 60, 61, 62, 63, 64, 65, 66, 67, 68, 69, 70, 71, 72, 73, 74, 75, 76, 77, 78, 79, 80, 81, 82, 83, 84, 85, 86, 87, 88, 89, 90, 91, 92, 93, 94, 95, 96, 97, 98, 99, 100, 101, 102, 103, 104, 105, 106, 107, 108, 109, 110, 111, 112, 113, 114, 115, 116, 117, 118, 119, 120, 121, 122, 123, 124, 125, 126, 127, 128, 129, 130, 131, 132, 133, 134, 135, 136, 137, 138, 139, 140, 141, 142, 143, 144, 145, 146, 147, 148, 149, 150, 151, 152, 153, 154, 155, 156, 157, 158, 159, 160, 161, 162, 163, 164, 165, 166, 167, 168, 169, 170, 171, 172, 173, 174, 175, 176, 177, 178, 179, 180, 181, 182, 183, 184, 185, 186, 187, 188, 189, 190, 191, 192, 193, 194, 195, 196, 197, 198, 199, 200, 201, 202, 203, 204, 205, 206, 207, 208, 209, 210, 211, 212, 213, 214, 215, 216, 217, 218, 219, 220, 221, 222, 223, 224, 225, 226, 227, 228, 229, 230, 231, 232, 233, 234, 235, 236, 237],
      "LargestImagePixelValue": [2157, 1601, 1963, 1684, 2189, 1691, 1731, 2257, 2131, 1943, 1797, 1801, 2299, 1729, 2120, 1629, 2064, 1587, 1995, 1704, 1806, 2097, 1635, 2043, 1626, 1932, 2133, 1598, 2087, 1633, 2045, 1586, 2111, 1853, 1793, 2028, 1611, 2097, 2031, 1730, 1866, 1827, 2162, 1590, 1940, 2140, 1599, 2076, 2093, 1589, 2150, 1824, 2118, 2163, 1742, 2223, 2266, 1638, 2034, 1809, 2291, 1768, 2100, 1714, 2070, 2271, 1679, 1984, 1975, 1698, 2149, 1629, 2054, 1690, 2073, 2083, 1644, 2033, 2206, 1612, 2068, 1689, 2177, 1770, 1961, 1757, 2090, 1775, 2043, 2207, 1658, 2131, 2132, 1644, 2155, 1795, 2310, 2219, 1683, 2252, 1633, 2105, 1617, 2146, 1903, 1954, 1985, 1612, 2042, 1685, 2089, 2239, 1591, 1995, 1735, 2034, 2055, 1606, 2125, 1680, 1870, 2028, 1661, 2147, 2201, 1627, 2111, 2301, 1664, 2076, 2229, 1676, 2225, 2249, 1664, 2093, 1719, 2142, 2334, 1576, 2126, 2099, 1617, 2123, 1700, 2291, 1700, 2025, 2069, 1751, 2187, 1639, 1963, 2109, 1621, 2150, 1955, 1710, 2173, 1621, 1952, 2015, 1569, 2054, 2140, 1609, 1961, 1575, 2092, 2051, 1700, 2216, 1600, 2031, 1608, 2019, 1887, 1927, 2131, 1613, 2138, 2102, 1790, 2026, 1776, 2187, 1622, 2129, 1612, 2025, 1640, 2149, 2176, 1599, 2115, 1672, 2227, 2226, 1570, 2182, 1787, 2178, 2012, 1926, 2333, 1697, 2018, 1713, 2050, 1893, 2065, 2052, 1838, 2254, 1636, 2145, 1672, 2185, 2161, 1610, 2078, 2216, 1851, 2072, 1656, 2193, 1934, 1991, 2198, 1686, 2105, 1893, 1798, 2104, 1771, 2181, 1781],
      "WindowCenter": [675.0, 673.0, 674.0, 673.0, 676.0, 675.0, 675.0, 676.0, 674.0, 674.0, 673.0, 673.0, 675.0, 673.0, 674.0, 673.0, 674.0, 672.0, 673.0, 673.0, 673.0, 674.0, 672.0, 674.0, 673.0, 674.0, 674.0, 672.0, 674.0, 673.0, 674.0, 672.0, 674.0, 673.0, 673.0, 674.0, 673.0, 674.0, 675.0, 673.0, 674.0, 674.0, 675.0, 672.0, 673.0, 674.0, 672.0, 674.0, 674.0, 673.0, 675.0, 673.0, 674.0, 674.0, 673.0, 674.0, 674.0, 673.0, 675.0, 675.0, 676.0, 674.0, 675.0, 673.0, 675.0, 675.0, 673.0, 674.0, 674.0, 674.0, 675.0, 673.0, 675.0, 673.0, 674.0, 674.0, 673.0, 674.0, 674.0, 673.0, 674.0, 673.0, 675.0, 673.0, 674.0, 673.0, 675.0, 673.0, 675.0, 674.0, 673.0, 674.0, 674.0, 672.0, 675.0, 674.0, 675.0, 675.0, 673.0, 675.0, 673.0, 675.0, 673.0, 674.0, 674.0, 673.0, 673.0, 672.0, 674.0, 673.0, 675.0, 675.0, 672.0, 674.0, 673.0, 674.0, 674.0, 672.0, 674.0, 672.0, 673.0, 675.0, 674.0, 675.0, 675.0, 673.0, 675.0, 675.0, 673.0, 674.0, 674.0, 673.0, 674.0, 674.0, 672.0, 675.0, 674.0, 676.0, 675.0, 672.0, 674.0, 673.0, 671.0, 675.0, 673.0, 675.0, 673.0, 674.0, 674.0, 673.0, 674.0, 672.0, 673.0, 674.0, 672.0, 675.0, 674.0, 673.0, 675.0, 673.0, 673.0, 674.0, 672.0, 674.0, 675.0, 672.0, 674.0, 673.0, 674.0, 674.0, 673.0, 674.0, 672.0, 674.0, 672.0, 674.0, 673.0, 674.0, 675.0, 674.0, 675.0, 675.0, 674.0, 675.0, 674.0, 675.0, 673.0, 675.0, 673.0, 675.0, 673.0, 675.0, 675.0, 673.0, 675.0, 674.0, 675.0, 675.0, 673.0, 675.0, 674.0, 675.0, 675.0, 675.0, 676.0, 673.0, 675.0, 673.0, 674.0, 674.0, 675.0, 675.0, 674.0, 675.0, 673.0, 675.0, 673.0, 675.0, 675.0, 673.0, 674.0, 675.0, 674.0, 675.0, 673.0, 675.0, 674.0, 675.0, 675.0, 673.0, 675.0, 675.0, 674.0, 674.0, 673.0, 675.0, 674.0],
      "WindowWidth": [1492.0, 1486.0, 1491.0, 1487.0, 1495.0, 1492.0, 1492.0, 1496.0, 1490.0, 1488.0, 1488.0, 1487.0, 1493.0, 1486.0, 1491.0, 1486.0, 1490.0, 1482.0, 1487.0, 1485.0, 1485.0, 1489.0, 1483.0, 1489.0, 1485.0, 1487.0, 1489.0, 1483.0, 1489.0, 1485.0, 1489.0, 1483.0, 1490.0, 1487.0, 1486.0, 1488.0, 1485.0, 1490.0, 1491.0, 1487.0, 1489.0, 1488.0, 1491.0, 1483.0, 1486.0, 1489.0, 1483.0, 1488.0, 1490.0, 1485.0, 1493.0, 1487.0, 1489.0, 1490.0, 1486.0, 1489.0, 1490.0, 1485.0, 1492.0, 1491.0, 1495.0, 1489.0, 1492.0, 1487.0, 1491.0, 1493.0, 1485.0, 1488.0, 1488.0, 1488.0, 1492.0, 1486.0, 1491.0, 1486.0, 1490.0, 1490.0, 1484.0, 1489.0, 1491.0, 1485.0, 1490.0, 1485.0, 1491.0, 1486.0, 1488.0, 1486.0, 1491.0, 1487.0, 1491.0, 1491.0, 1484.0, 1489.0, 1489.0, 1483.0, 1491.0, 1488.0, 1494.0, 1492.0, 1486.0, 1493.0, 1486.0, 1492.0, 1485.0, 1491.0, 1488.0, 1487.0, 1486.0, 1483.0, 1489.0, 1486.0, 1492.0, 1492.0, 1483.0, 1488.0, 1485.0, 1489.0, 1489.0, 1484.0, 1490.0, 1484.0, 1487.0, 1491.0, 1488.0, 1493.0, 1492.0, 1485.0, 1491.0, 1492.0, 1484.0, 1489.0, 1490.0, 1485.0, 1490.0, 1490.0, 1484.0, 1491.0, 1490.0, 1495.0, 1493.0, 1483.0, 1489.0, 1487.0, 1480.0, 1491.0, 1487.0, 1493.0, 1486.0, 1488.0, 1489.0, 1486.0, 1490.0, 1483.0, 1486.0, 1488.0, 1484.0, 1491.0, 1489.0, 1486.0, 1491.0, 1484.0, 1487.0, 1488.0, 1482.0, 1489.0, 1491.0, 1484.0, 1488.0, 1484.0, 1490.0, 1489.0, 1486.0, 1491.0, 1483.0, 1488.0, 1483.0, 1489.0, 1487.0, 1487.0, 1491.0, 1487.0, 1492.0, 1492.0, 1490.0, 1492.0, 1490.0, 1493.0, 1487.0, 1492.0, 1486.0, 1491.0, 1486.0, 1491.0, 1492.0, 1485.0, 1492.0, 1487.0, 1493.0, 1492.0, 1484.0, 1493.0, 1489.0, 1493.0, 1492.0, 1490.0, 1495.0, 1486.0, 1490.0, 1485.0, 1490.0, 1489.0, 1493.0, 1493.0, 1490.0, 1493.0, 1486.0, 1492.0, 1486.0, 1492.0, 1492.0, 1486.0, 1490.0, 1492.0, 1488.0, 1491.0, 1485.0, 1492.0, 1489.0, 1491.0, 1492.0, 1485.0, 1492.0, 1492.0, 1489.0, 1490.0, 1486.0, 1491.0, 1488.0]
    },
    "slices": {}
  }
}