{
  "AcquisitionMatrixPE": 70,
  "AcquisitionNumber": 1,
  "AcquisitionTime": "15:00:37.202500",
  "BandwidthPerPixelPhaseEncode": 38.873,
  "BaseResolution": 70,
  "BodyPartExamined": "HEAD",
  "ConsistencyInfo": "N4_VE11B_LATEST_20150530",
  "ConversionSoftware": "dcm2niix",
  "ConversionSoftwareVersion": "v1.0.20190410  GCC6.3.0",
  "DerivedVendorReportedEchoSpacing": 0.000489996,
  "DeviceSerialNumber": "66088",
  "DwellTime": 2.9e-06,
  "EchoTime": 0.03,
  "EchoTrainLength": 53,
  "EffectiveEchoSpacing": 0.000367497,
  "FlipAngle": 90,
  "ImageOrientationPatientDICOM": [0.996649, -0.0589471, 0.0567076, 0.076688, 0.914547, -0.397143],
  "ImageType": [
    "ORIGINAL",
    "PRIMARY",
    "M",
    "ND",
    "NORM",
    "MOSAIC"
],
  "ImagingFrequency": 123.191,
  "InPlanePhaseEncodingDirectionDICOM": "COL",
  "InstitutionAddress": "Street_StreetNo_City_District_IR_ZIP",
  "InstitutionName": "NBML",
  "InstitutionalDepartmentName": "Department",
  "MRAcquisitionType": "2D",
  "MagneticFieldStrength": 3,
  "Manufacturer": "Siemens",
  "ManufacturersModelName": "Prisma",
  "Modality": "MR",
  "ParallelReductionFactorInPlane": 2,
  "PartialFourier": 1,
  "PatientPosition": "HFS",
  "PercentPhaseFOV": 100,
  "PhaseEncodingDirection": "j-",
  "PhaseEncodingSteps": 105,
  "PhaseOversampling": 0.5,
  "PhaseResolution": 1,
  "PixelBandwidth": 2465,
  "ProcedureStepDescription": "NBML_Project_P_96169_Ebrahiminiya-Khaliq",
  "ProtocolName": "ep2d_p2_Task_3.5_measurment:237",
  "PulseSequenceDetails": "%SiemensSeq%_ep2d_pace",
  "ReceiveCoilActiveElements": "HC1-7;NC1",
  "ReceiveCoilName": "HeadNeck_64",
  "ReconMatrixPE": 70,
  "RefLinesPE": 24,
  "RepetitionTime": 2,
  "SAR": 0.0792012,
  "ScanOptions": "FS",
  "ScanningSequence": "EP",
  "SequenceName": "_epfid2d1_70",
  "SequenceVariant": "SK_OSP",
  "SeriesDescription": "ep2d_p2_Task_3.5_measurment:237",
  "SeriesNumber": 5,
  "ShimSetting": [2592, -4490, -3357, 281, 8, -102, -142, -41],
  "SliceThickness": 3.5,
  "SliceTiming": [0.99, 0, 1.05, 0.06, 1.1075, 0.1175, 1.165, 0.175, 1.225, 0.235, 1.2825, 0.2925, 1.34, 0.35, 1.3975, 0.4075, 1.4575, 0.4675, 1.515, 0.525, 1.5725, 0.5825, 1.6325, 0.6425, 1.69, 0.7, 1.7475, 0.7575, 1.805, 0.8175, 1.865, 0.875, 1.9225, 0.9325],
  "SoftwareVersions": "syngo_MR_E11",
  "SpacingBetweenSlices": 3.85,
  "StationName": "AWP66088",
  "TaskName": "categorySelectivity",
  "TotalReadoutTime": 0.0253573,
  "TxRefAmp": 220.21,
  "dcmmeta_affine": [
    [-3.5309855937957764, 0.27169448137283325, 0.10953766107559204, 121.57103729248047],
    [0.20884127914905548, 3.2401092052459717, -1.5406213998794556, -97.56075286865234],
    [0.20090709626674652, 1.40702223777771, 3.526611328125, -90.68734741210938],
    [0.0, 0.0, 0.0, 1.0]
],
  "dcmmeta_reorient_transform": [
    [0.0, -1.0, 0.0, 69.0],
    [1.0, 0.0, 0.0, 0.0],
    [0.0, 0.0, 1.0, 0.0],
    [0.0, 0.0, 0.0, 1.0]
],
  "dcmmeta_shape": [70, 70, 34, 237],
  "dcmmeta_slice_dim": 2,
  "dcmmeta_version": 0.6,
  "global": {
    "const": {
      "AccessionNumber": "M.BRZ",
      "AcquisitionMatrix": [70, 0, 0, 70],
      "AngioFlag": "N",
      "BitsAllocated": 16,
      "BitsStored": 12,
      "BodyPartExamined": "HEAD",
      "Columns": 420,
      "EchoNumbers": 1,
      "EchoTime": 30.0,
      "EchoTrainLength": 53,
      "FlipAngle": 90.0,
      "HighBit": 11,
      "ImageOrientationPatient": [0.99664912487402, -0.058947134234, 0.05670764722193, 0.07668795935274, 0.91454693204716, -0.3971433821348],
      "ImagePositionPatient": [-805.78695509344, -656.47866139017, 217.46734759766],
      "ImageType": [
        "ORIGINAL",
        "PRIMARY",
        "M",
        "ND",
        "NORM",
        "MOSAIC"
],
      "ImagedNucleus": "1H",
      "ImagingFrequency": 123.191269,
      "InPlanePhaseEncodingDirection": "COL",
      "MRAcquisitionType": "2D",
      "MagneticFieldStrength": 3.0,
      "Manufacturer": "SIEMENS",
      "ManufacturerModelName": "Prisma",
      "Modality": "MR",
      "NumberOfAverages": 1.0,
      "NumberOfPhaseEncodingSteps": 105,
      "PercentPhaseFieldOfView": 100.0,
      "PercentSampling": 100.0,
      "PerformedProcedureStepStartTime": "144144.494000",
      "PhotometricInterpretation": "MONOCHROME2",
      "PixelBandwidth": 2465.0,
      "PixelRepresentation": 0,
      "PixelSpacing": [3.542857170105, 3.542857170105],
      "ProtocolName": "ep2d_p2_Task_3.5_measurment:237",
      "RepetitionTime": 2000.0,
      "Rows": 420,
      "SAR": 0.07920119930609,
      "SamplesPerPixel": 1,
      "ScanOptions": "FS",
      "ScanningSequence": "EP",
      "SequenceName": "*epfid2d1_70",
      "SequenceVariant": [
        "SK",
        "OSP"
],
      "SeriesDescription": "ep2d_p2_Task_3.5_measurment:237",
      "SeriesNumber": 5,
      "SeriesTime": "150119.617000",
      "SliceLocation": -40.570971194035,
      "SliceThickness": 3.5,
      "SmallestImagePixelValue": 0,
      "SoftwareVersions": "syngo MR E11",
      "SpacingBetweenSlices": 3.8500000016861,
      "SpecificCharacterSet": "ISO_IR 100",
      "StudyID": "1",
      "StudyTime": "144144.418000",
      "TransmitCoilName": "Body",
      "VariableFlipAngleFlag": "N",
      "WindowCenterWidthExplanation": "Algo1",
      "dBdt": 0.0},
    "slices": {}
  },
  "time": {
    "samples": {
      "AcquisitionNumber": [1, 2, 3, 4, 5, 6, 7, 8, 9, 10, 11, 12, 13, 14, 15, 16, 17, 18, 19, 20, 21, 22, 23, 24, 25, 26, 27, 28, 29, 30, 31, 32, 33, 34, 35, 36, 37, 38, 39, 40, 41, 42, 43, 44, 45, 46, 47, 48, 49, 50, 51, 52, 53, 54, 55, 56, 57, 58, 59, 60, 61, 62, 63, 64, 65, 66, 67, 68, 69, 70, 71, 72, 73, 74, 75, 76, 77, 78, 79, 80, 81, 82, 83, 84, 85, 86, 87, 88, 89, 90, 91, 92, 93, 94, 95, 96, 97, 98, 99, 100, 101, 102, 103, 104, 105, 106, 107, 108, 109, 110, 111, 112, 113, 114, 115, 116, 117, 118, 119, 120, 121, 122, 123, 124, 125, 126, 127, 128, 129, 130, 131, 132, 133, 134, 135, 136, 137, 138, 139, 140, 141, 142, 143, 144, 145, 146, 147, 148, 149, 150, 151, 152, 153, 154, 155, 156, 157, 158, 159, 160, 161, 162, 163, 164, 165, 166, 167, 168, 169, 170, 171, 172, 173, 174, 175, 176, 177, 178, 179, 180, 181, 182, 183, 184, 185, 186, 187, 188, 189, 190, 191, 192, 193, 194, 195, 196, 197, 198, 199, 200, 201, 202, 203, 204, 205, 206, 207, 208, 209, 210, 211, 212, 213, 214, 215, 216, 217, 218, 219, 220, 221, 222, 223, 224, 225, 226, 227, 228, 229, 230, 231, 232, 233, 234, 235, 236, 237],
      "AcquisitionTime": ["150037.202500", "150039.202500", "150041.202500", "150043.202500", "150045.202500", "150047.202500", "150049.202500", "150051.202500", "150053.202500", "150055.202500", "150057.202500", "150059.202500", "150101.202500", "150103.202500", "150105.202500", "150107.202500", "150109.202500", "150111.202500", "150113.202500", "150115.202500", "150117.202500", "150119.202500", "150121.202500", "150123.202500", "150125.202500", "150127.202500", "150129.202500", "150131.202500", "150133.202500", "150135.202500", "150137.202500", "150139.202500", "150141.202500", "150143.202500", "150145.202500", "150147.202500", "150149.202500", "150151.202500", "150153.202500", "150155.202500", "150157.202500", "150159.202500", "150201.202500", "150203.202500", "150205.202500", "150207.202500", "150209.202500", "150211.202500", "150213.202500", "150215.202500", "150217.202500", "150219.202500", "150221.202500", "150223.202500", "150225.202500", "150227.202500", "150229.202500", "150231.202500", "150233.202500", "150235.202500", "150237.202500", "150239.202500", "150241.202500", "150243.202500", "150245.202500", "150247.202500", "150249.202500", "150251.202500", "150253.202500", "150255.202500", "150257.202500", "150259.202500", "150301.202500", "150303.202500", "150305.202500", "150307.202500", "150309.202500", "150311.202500", "150313.202500", "150315.202500", "150317.202500", "150319.202500", "150321.202500", "150323.202500", "150325.202500", "150327.202500", "150329.202500", "150331.202500", "150333.202500", "150335.202500", "150337.202500", "150339.202500", "150341.202500", "150343.202500", "150345.202500", "150347.202500", "150349.202500", "150351.202500", "150353.202500", "150355.202500", "150357.202500", "150359.202500", "150401.202500", "150403.202500", "150405.202500", "150407.202500", "150409.202500", "150411.202500", "150413.202500", "150415.202500", "150417.202500", "150419.202500", "150421.202500", "150423.202500", "150425.202500", "150427.202500", "150429.202500", "150431.202500", "150433.202500", "150435.202500", "150437.202500", "150439.202500", "150441.202500", "150443.202500", "150445.202500", "150447.202500", "150449.202500", "150451.202500", "150453.202500", "150455.202500", "150457.202500", "150459.202500", "150501.202500", "150503.202500", "150505.202500", "150507.202500", "150509.202500", "150511.202500", "150513.202500", "150515.202500", "150517.202500", "150519.202500", "150521.202500", "150523.202500", "150525.202500", "150527.202500", "150529.202500", "150531.202500", "150533.202500", "150535.202500", "150537.202500", "150539.202500", "150541.202500", "150543.202500", "150545.202500", "150547.202500", "150549.202500", "150551.202500", "150553.202500", "150555.202500", "150557.202500", "150559.202500", "150601.202500", "150603.202500", "150605.202500", "150607.202500", "150609.202500", "150611.202500", "150613.202500", "150615.202500", "150617.202500", "150619.202500", "150621.202500", "150623.202500", "150625.202500", "150627.202500", "150629.202500", "150631.202500", "150633.202500", "150635.202500", "150637.202500", "150639.202500", "150641.202500", "150643.202500", "150645.202500", "150647.202500", "150649.202500", "150651.202500", "150653.202500", "150655.202500", "150657.202500", "150659.202500", "150701.202500", "150703.202500", "150705.202500", "150707.202500", "150709.202500", "150711.202500", "150713.202500", "150715.202500", "150717.202500", "150719.202500", "150721.202500", "150723.202500", "150725.202500", "150727.202500", "150729.202500", "150731.202500", "150733.202500", "150735.202500", "150737.202500", "150739.202500", "150741.202500", "150743.202500", "150745.202500", "150747.202500", "150749.202500", "150751.202500", "150753.202500", "150755.202500", "150757.202500", "150759.202500", "150801.202500", "150803.202500", "150805.202500", "150807.202500", "150809.202500", "150811.202500", "150813.202500", "150815.202500", "150817.202500", "150819.202500", "150821.202500", "150823.202500", "150825.202500", "150827.202500", "150829.202500"],
      "ContentTime": ["150119.620000", "150119.624000", "150119.626000", "150119.628000", "150119.631000", "150119.633000", "150119.636000", "150119.638000", "150119.641000", "150119.643000", "150119.646000", "150119.648000", "150119.650000", "150119.653000", "150119.655000", "150119.658000", "150119.660000", "150119.663000", "150119.665000", "150119.667000", "150119.670000", "150159.617000", "150159.620000", "150159.623000", "150159.626000", "150159.629000", "150159.633000", "150159.636000", "150159.639000", "150159.642000", "150159.645000", "150159.648000", "150159.651000", "150159.654000", "150159.657000", "150159.660000", "150159.664000", "150159.667000", "150159.670000", "150159.673000", "150159.676000", "150239.616000", "150239.622000", "150239.625000", "150239.628000", "150239.631000", "150239.634000", "150239.637000", "150239.641000", "150239.644000", "150239.648000", "150239.652000", "150239.655000", "150239.658000", "150239.661000", "150239.664000", "150239.667000", "150239.671000", "150239.674000", "150239.677000", "150239.681000", "150259.617000", "150259.620000", "150259.623000", "150259.627000", "150259.630000", "150259.633000", "150259.636000", "150259.639000", "150259.642000", "150259.646000", "150339.617000", "150339.620000", "150339.624000", "150339.627000", "150339.630000", "150339.634000", "150339.637000", "150339.640000", "150339.643000", "150339.647000", "150339.650000", "150339.653000", "150339.656000", "150339.660000", "150339.663000", "150339.666000", "150339.669000", "150339.673000", "150339.676000", "150339.679000", "150419.617000", "150419.620000", "150419.623000", "150419.625000", "150419.628000", "150419.631000", "150419.633000", "150419.636000", "150419.638000", "150419.641000", "150419.644000", "150419.646000", "150419.649000", "150419.652000", "150419.654000", "150419.657000", "150419.659000", "150419.662000", "150419.672000", "150419.674000", "150459.616000", "150459.619000", "150459.622000", "150459.625000", "150459.629000", "150459.632000", "150459.635000", "150459.638000", "150459.642000", "150459.645000", "150459.648000", "150459.651000", "150459.655000", "150459.658000", "150459.661000", "150459.664000", "150459.668000", "150459.671000", "150459.675000", "150459.678000", "150539.616000", "150539.620000", "150539.624000", "150539.627000", "150539.630000", "150539.633000", "150539.637000", "150539.640000", "150539.643000", "150539.646000", "150539.650000", "150539.653000", "150539.656000", "150539.659000", "150539.664000", "150539.667000", "150539.670000", "150539.673000", "150539.677000", "150539.680000", "150619.616000", "150619.619000", "150619.621000", "150619.624000", "150619.626000", "150619.629000", "150619.632000", "150619.635000", "150619.637000", "150619.640000", "150619.642000", "150619.645000", "150619.648000", "150619.650000", "150619.653000", "150619.655000", "150619.658000", "150619.660000", "150619.663000", "150619.665000", "150659.617000", "150659.621000", "150659.624000", "150659.627000", "150659.630000", "150659.633000", "150659.637000", "150659.640000", "150659.643000", "150659.646000", "150659.649000", "150659.652000", "150659.656000", "150659.659000", "150659.662000", "150659.665000", "150659.669000", "150659.679000", "150659.683000", "150659.686000", "150739.619000", "150739.623000", "150739.626000", "150739.629000", "150739.632000", "150739.636000", "150739.639000", "150739.642000", "150739.645000", "150739.649000", "150739.652000", "150739.656000", "150739.659000", "150739.662000", "150739.665000", "150739.668000", "150739.672000", "150739.675000", "150739.678000", "150739.681000", "150819.615000", "150819.618000", "150819.621000", "150819.623000", "150819.635000", "150819.638000", "150819.640000", "150819.643000", "150819.645000", "150819.648000", "150819.650000", "150819.653000", "150819.655000", "150819.657000", "150819.660000", "150819.662000", "150819.665000", "150819.667000", "150819.670000", "150819.672000", "150830.524000", "150830.527000", "150830.530000", "150830.532000", "150830.535000", "150830.537000"],
      "InstanceCreationTime": ["150119.620000", "150119.624000", "150119.626000", "150119.628000", "150119.631000", "150119.633000", "150119.636000", "150119.638000", "150119.641000", "150119.643000", "150119.646000", "150119.648000", "150119.650000", "150119.653000", "150119.655000", "150119.658000", "150119.660000", "150119.663000", "150119.665000", "150119.667000", "150119.670000", "150159.617000", "150159.620000", "150159.623000", "150159.626000", "150159.629000", "150159.633000", "150159.636000", "150159.639000", "150159.642000", "150159.645000", "150159.648000", "150159.651000", "150159.654000", "150159.657000", "150159.660000", "150159.664000", "150159.667000", "150159.670000", "150159.673000", "150159.676000", "150239.616000", "150239.622000", "150239.625000", "150239.628000", "150239.631000", "150239.634000", "150239.637000", "150239.641000", "150239.644000", "150239.648000", "150239.652000", "150239.655000", "150239.658000", "150239.661000", "150239.664000", "150239.667000", "150239.671000", "150239.674000", "150239.677000", "150239.681000", "150259.617000", "150259.620000", "150259.623000", "150259.627000", "150259.630000", "150259.633000", "150259.636000", "150259.639000", "150259.642000", "150259.646000", "150339.617000", "150339.620000", "150339.624000", "150339.627000", "150339.630000", "150339.634000", "150339.637000", "150339.640000", "150339.643000", "150339.647000", "150339.650000", "150339.653000", "150339.656000", "150339.660000", "150339.663000", "150339.666000", "150339.669000", "150339.673000", "150339.676000", "150339.679000", "150419.617000", "150419.620000", "150419.623000", "150419.625000", "150419.628000", "150419.631000", "150419.633000", "150419.636000", "150419.638000", "150419.641000", "150419.644000", "150419.646000", "150419.649000", "150419.652000", "150419.654000", "150419.657000", "150419.659000", "150419.662000", "150419.672000", "150419.674000", "150459.616000", "150459.619000", "150459.622000", "150459.625000", "150459.629000", "150459.632000", "150459.635000", "150459.638000", "150459.642000", "150459.645000", "150459.648000", "150459.651000", "150459.655000", "150459.658000", "150459.661000", "150459.664000", "150459.668000", "150459.671000", "150459.675000", "150459.678000", "150539.616000", "150539.620000", "150539.624000", "150539.627000", "150539.630000", "150539.633000", "150539.637000", "150539.640000", "150539.643000", "150539.646000", "150539.650000", "150539.653000", "150539.656000", "150539.659000", "150539.664000", "150539.667000", "150539.670000", "150539.673000", "150539.677000", "150539.680000", "150619.616000", "150619.619000", "150619.621000", "150619.624000", "150619.626000", "150619.629000", "150619.632000", "150619.635000", "150619.637000", "150619.640000", "150619.642000", "150619.645000", "150619.648000", "150619.650000", "150619.653000", "150619.655000", "150619.658000", "150619.660000", "150619.663000", "150619.665000", "150659.617000", "150659.621000", "150659.624000", "150659.627000", "150659.630000", "150659.633000", "150659.637000", "150659.640000", "150659.643000", "150659.646000", "150659.649000", "150659.652000", "150659.656000", "150659.659000", "150659.662000", "150659.665000", "150659.669000", "150659.679000", "150659.683000", "150659.686000", "150739.619000", "150739.623000", "150739.626000", "150739.629000", "150739.632000", "150739.636000", "150739.639000", "150739.642000", "150739.645000", "150739.649000", "150739.652000", "150739.656000", "150739.659000", "150739.662000", "150739.665000", "150739.668000", "150739.672000", "150739.675000", "150739.678000", "150739.681000", "150819.615000", "150819.618000", "150819.621000", "150819.623000", "150819.635000", "150819.638000", "150819.640000", "150819.643000", "150819.645000", "150819.648000", "150819.650000", "150819.653000", "150819.655000", "150819.657000", "150819.660000", "150819.662000", "150819.665000", "150819.667000", "150819.670000", "150819.672000", "150830.524000", "150830.527000", "150830.530000", "150830.532000", "150830.535000", "150830.537000"],
      "InstanceNumber": [1, 2, 3, 4, 5, 6, 7, 8, 9, 10, 11, 12, 13, 14, 15, 16, 17, 18, 19, 20, 21, 22, 23, 24, 25, 26, 27, 28, 29, 30, 31, 32, 33, 34, 35, 36, 37, 38, 39, 40, 41, 42, 43, 44, 45, 46, 47, 48, 49, 50, 51, 52, 53, 54, 55, 56, 57, 58, 59, 60, 61, 62, 63, 64, 65, 66, 67, 68, 69, 70, 71, 72, 73, 74, 75, 76, 77, 78, 79, 80, 81, 82, 83, 84, 85, 86, 87, 88, 89, 90, 91, 92, 93, 94, 95, 96, 97, 98, 99, 100, 101, 102, 103, 104, 105, 106, 107, 108, 109, 110, 111, 112, 113, 114, 115, 116, 117, 118, 119, 120, 121, 122, 123, 124, 125, 126, 127, 128, 129, 130, 131, 132, 133, 134, 135, 136, 137, 138, 139, 140, 141, 142, 143, 144, 145, 146, 147, 148, 149, 150, 151, 152, 153, 154, 155, 156, 157, 158, 159, 160, 161, 162, 163, 164, 165, 166, 167, 168, 169, 170, 171, 172, 173, 174, 175, 176, 177, 178, 179, 180, 181, 182, 183, 184, 185, 186, 187, 188, 189, 190, 191, 192, 193, 194, 195, 196, 197, 198, 199, 200, 201, 202, 203, 204, 205, 206, 207, 208, 209, 210, 211, 212, 213, 214, 215, 216, 217, 218, 219, 220, 221, 222, 223, 224, 225, 226, 227, 228, 229, 230, 231, 232, 233, 234, 235, 236, 237],
      "LargestImagePixelValue": [1878, 1914, 1902, 1917, 2287, 2446, 2213, 2002, 1852, 1841, 1852, 1981, 1910, 2080, 2425, 2088, 1851, 1845, 2295, 2207, 2389, 2305, 1999, 1890, 1972, 2119, 2009, 1873, 1907, 1916, 1837, 1889, 2494, 2398, 2107, 1937, 2044, 2006, 1969, 2003, 2005, 1943, 2010, 2138, 2430, 2277, 1801, 2012, 1974, 1869, 1998, 1971, 1984, 1927, 2027, 2046, 2671, 2237, 2075, 2221, 1953, 1954, 1965, 1975, 2041, 1980, 1975, 2066, 1936, 2229, 2012, 2001, 2032, 2029, 2011, 1988, 1959, 1946, 1986, 2033, 1988, 1964, 1932, 1985, 2448, 2023, 1851, 1959, 2063, 2029, 2015, 2365, 2211, 1888, 1945, 2066, 2117, 2091, 2127, 2088, 2180, 2029, 1992, 2012, 2062, 1978, 1998, 2695, 2133, 1926, 1978, 2025, 2197, 2106, 2091, 2010, 2097, 2001, 2440, 2294, 1980, 1982, 1976, 2053, 2083, 2081, 2235, 2142, 2016, 2009, 2034, 2020, 2042, 2100, 2069, 1989, 2449, 2118, 2503, 2089, 1949, 1994, 2035, 2068, 2119, 1981, 1992, 1988, 2292, 2280, 2237, 2087, 1961, 1981, 2099, 2100, 1989, 2414, 2605, 2138, 1924, 1938, 2438, 1879, 1894, 1964, 2075, 2435, 2640, 1993, 1931, 2107, 2056, 2139, 1998, 1980, 1988, 2007, 2767, 2085, 1894, 1981, 1936, 2314, 2379, 2034, 1972, 1956, 1949, 2016, 2040, 2093, 2332, 2214, 1909, 1941, 1987, 1952, 1952, 2000, 1986, 2010, 1979, 2540, 2505, 2103, 1976, 1978, 2000, 2190, 1913, 2027, 2303, 1989, 1962, 1942, 1971, 2046, 1958, 1970, 1985, 1961, 1995, 2292, 2787, 1782, 1861, 2274, 2897, 2032, 1876, 1906, 1969, 1951, 1952, 1927, 2015],
      "WindowCenter": [681.0, 681.0, 681.0, 682.0, 684.0, 683.0, 683.0, 682.0, 682.0, 682.0, 682.0, 682.0, 682.0, 681.0, 682.0, 681.0, 681.0, 681.0, 683.0, 683.0, 683.0, 682.0, 680.0, 680.0, 681.0, 681.0, 681.0, 680.0, 680.0, 680.0, 680.0, 681.0, 683.0, 682.0, 682.0, 681.0, 681.0, 681.0, 680.0, 681.0, 680.0, 681.0, 682.0, 682.0, 683.0, 682.0, 681.0, 682.0, 681.0, 681.0, 681.0, 681.0, 681.0, 681.0, 681.0, 681.0, 683.0, 681.0, 681.0, 681.0, 681.0, 681.0, 681.0, 682.0, 682.0, 681.0, 680.0, 681.0, 682.0, 681.0, 680.0, 680.0, 681.0, 681.0, 681.0, 681.0, 681.0, 681.0, 681.0, 682.0, 681.0, 681.0, 681.0, 681.0, 681.0, 680.0, 681.0, 681.0, 681.0, 681.0, 681.0, 681.0, 681.0, 680.0, 682.0, 681.0, 682.0, 682.0, 681.0, 682.0, 681.0, 681.0, 681.0, 681.0, 680.0, 680.0, 681.0, 682.0, 680.0, 681.0, 681.0, 682.0, 682.0, 681.0, 680.0, 681.0, 681.0, 680.0, 682.0, 681.0, 680.0, 681.0, 681.0, 682.0, 682.0, 682.0, 682.0, 682.0, 681.0, 682.0, 682.0, 682.0, 681.0, 681.0, 681.0, 681.0, 681.0, 681.0, 682.0, 681.0, 680.0, 681.0, 681.0, 681.0, 681.0, 680.0, 680.0, 681.0, 682.0, 681.0, 682.0, 681.0, 681.0, 681.0, 681.0, 682.0, 681.0, 682.0, 682.0, 681.0, 681.0, 680.0, 681.0, 680.0, 681.0, 681.0, 681.0, 681.0, 682.0, 680.0, 680.0, 681.0, 681.0, 681.0, 681.0, 681.0, 681.0, 680.0, 682.0, 681.0, 680.0, 681.0, 681.0, 682.0, 682.0, 682.0, 682.0, 681.0, 682.0, 682.0, 681.0, 681.0, 682.0, 681.0, 681.0, 681.0, 681.0, 681.0, 681.0, 681.0, 681.0, 681.0, 681.0, 682.0, 682.0, 681.0, 681.0, 681.0, 681.0, 682.0, 680.0, 680.0, 682.0, 681.0, 681.0, 681.0, 681.0, 680.0, 680.0, 680.0, 680.0, 681.0, 681.0, 681.0, 683.0, 681.0, 681.0, 681.0, 681.0, 679.0, 678.0, 679.0, 680.0, 680.0, 680.0, 680.0, 680.0],
      "WindowWidth": [1513.0, 1512.0, 1513.0, 1516.0, 1521.0, 1520.0, 1519.0, 1516.0, 1514.0, 1514.0, 1514.0, 1515.0, 1514.0, 1513.0, 1515.0, 1511.0, 1510.0, 1512.0, 1520.0, 1519.0, 1518.0, 1516.0, 1510.0, 1509.0, 1512.0, 1514.0, 1512.0, 1509.0, 1509.0, 1510.0, 1510.0, 1512.0, 1517.0, 1515.0, 1513.0, 1511.0, 1512.0, 1511.0, 1509.0, 1511.0, 1510.0, 1512.0, 1514.0, 1516.0, 1518.0, 1516.0, 1513.0, 1515.0, 1513.0, 1510.0, 1512.0, 1511.0, 1512.0, 1513.0, 1513.0, 1513.0, 1519.0, 1513.0, 1512.0, 1514.0, 1511.0, 1512.0, 1512.0, 1514.0, 1514.0, 1511.0, 1510.0, 1512.0, 1514.0, 1514.0, 1509.0, 1509.0, 1512.0, 1513.0, 1513.0, 1512.0, 1511.0, 1513.0, 1513.0, 1514.0, 1510.0, 1510.0, 1511.0, 1511.0, 1513.0, 1509.0, 1511.0, 1513.0, 1513.0, 1512.0, 1511.0, 1513.0, 1511.0, 1509.0, 1513.0, 1513.0, 1515.0, 1514.0, 1512.0, 1513.0, 1513.0, 1512.0, 1512.0, 1511.0, 1510.0, 1510.0, 1511.0, 1516.0, 1511.0, 1510.0, 1510.0, 1513.0, 1515.0, 1511.0, 1510.0, 1511.0, 1512.0, 1510.0, 1514.0, 1512.0, 1510.0, 1513.0, 1512.0, 1514.0, 1514.0, 1514.0, 1516.0, 1514.0, 1512.0, 1513.0, 1514.0, 1513.0, 1512.0, 1511.0, 1512.0, 1512.0, 1513.0, 1511.0, 1515.0, 1510.0, 1508.0, 1511.0, 1512.0, 1513.0, 1511.0, 1508.0, 1508.0, 1512.0, 1515.0, 1513.0, 1515.0, 1513.0, 1512.0, 1510.0, 1511.0, 1513.0, 1511.0, 1514.0, 1515.0, 1512.0, 1510.0, 1509.0, 1513.0, 1508.0, 1511.0, 1513.0, 1513.0, 1514.0, 1514.0, 1510.0, 1510.0, 1512.0, 1512.0, 1512.0, 1511.0, 1511.0, 1512.0, 1510.0, 1514.0, 1511.0, 1509.0, 1511.0, 1510.0, 1515.0, 1517.0, 1514.0, 1513.0, 1513.0, 1514.0, 1514.0, 1513.0, 1512.0, 1515.0, 1513.0, 1511.0, 1512.0, 1513.0, 1513.0, 1513.0, 1513.0, 1512.0, 1512.0, 1510.0, 1515.0, 1515.0, 1512.0, 1512.0, 1512.0, 1512.0, 1514.0, 1509.0, 1510.0, 1514.0, 1512.0, 1512.0, 1511.0, 1510.0, 1510.0, 1509.0, 1510.0, 1510.0, 1511.0, 1511.0, 1513.0, 1517.0, 1510.0, 1510.0, 1512.0, 1513.0, 1504.0, 1503.0, 1506.0, 1508.0, 1509.0, 1509.0, 1509.0, 1509.0]
    },
    "slices": {}
  }
}