{
  "AcquisitionMatrixPE": 70,
  "AcquisitionNumber": 1,
  "AcquisitionTime": "15:18:12.385000",
  "BandwidthPerPixelPhaseEncode": 38.873,
  "BaseResolution": 70,
  "BodyPartExamined": "HEAD",
  "ConsistencyInfo": "N4_VE11B_LATEST_20150530",
  "ConversionSoftware": "dcm2niix",
  "ConversionSoftwareVersion": "v1.0.20190410  GCC6.3.0",
  "DerivedVendorReportedEchoSpacing": 0.000489996,
  "DeviceSerialNumber": "66088",
  "DwellTime": 2.9e-06,
  "EchoTime": 0.03,
  "EchoTrainLength": 53,
  "EffectiveEchoSpacing": 0.000367497,
  "FlipAngle": 90,
  "ImageOrientationPatientDICOM": [0.996649, -0.0589471, 0.0567076, 0.076688, 0.914547, -0.397143],
  "ImageType": [
    "ORIGINAL",
    "PRIMARY",
    "M",
    "ND",
    "NORM",
    "MOSAIC"
],
  "ImagingFrequency": 123.191,
  "InPlanePhaseEncodingDirectionDICOM": "COL",
  "InstitutionAddress": "Street_StreetNo_City_District_IR_ZIP",
  "InstitutionName": "NBML",
  "InstitutionalDepartmentName": "Department",
  "MRAcquisitionType": "2D",
  "MagneticFieldStrength": 3,
  "Manufacturer": "Siemens",
  "ManufacturersModelName": "Prisma",
  "Modality": "MR",
  "ParallelReductionFactorInPlane": 2,
  "PartialFourier": 1,
  "PatientPosition": "HFS",
  "PercentPhaseFOV": 100,
  "PhaseEncodingDirection": "j-",
  "PhaseEncodingSteps": 105,
  "PhaseOversampling": 0.5,
  "PhaseResolution": 1,
  "PixelBandwidth": 2465,
  "ProcedureStepDescription": "NBML_Project_P_96169_Ebrahiminiya-Khaliq",
  "ProtocolName": "ep2d_p2_Task_3.5_measurment:237",
  "PulseSequenceDetails": "%SiemensSeq%_ep2d_pace",
  "ReceiveCoilActiveElements": "HC1-7;NC1",
  "ReceiveCoilName": "HeadNeck_64",
  "ReconMatrixPE": 70,
  "RefLinesPE": 24,
  "RepetitionTime": 2,
  "SAR": 0.0792012,
  "ScanOptions": "FS",
  "ScanningSequence": "EP",
  "SequenceName": "_epfid2d1_70",
  "SequenceVariant": "SK_OSP",
  "SeriesDescription": "ep2d_p2_Task_3.5_measurment:237",
  "SeriesNumber": 7,
  "ShimSetting": [2592, -4490, -3357, 281, 8, -102, -142, -41],
  "SliceThickness": 3.5,
  "SliceTiming": [0.99, 0, 1.0475, 0.06, 1.1075, 0.1175, 1.165, 0.175, 1.2225, 0.2325, 1.2825, 0.2925, 1.34, 0.35, 1.3975, 0.4075, 1.4575, 0.4675, 1.515, 0.525, 1.5725, 0.5825, 1.63, 0.64, 1.69, 0.7, 1.7475, 0.7575, 1.805, 0.815, 1.865, 0.875, 1.9225, 0.9325],
  "SoftwareVersions": "syngo_MR_E11",
  "SpacingBetweenSlices": 3.85,
  "StationName": "AWP66088",
  "TaskName": "categorySelectivity",
  "TotalReadoutTime": 0.0253573,
  "TxRefAmp": 220.21,
  "dcmmeta_affine": [
    [-3.5309855937957764, 0.27169448137283325, 0.10953766107559204, 121.57103729248047],
    [0.20884127914905548, 3.2401092052459717, -1.5406213998794556, -97.56075286865234],
    [0.20090709626674652, 1.40702223777771, 3.526611328125, -90.68734741210938],
    [0.0, 0.0, 0.0, 1.0]
],
  "dcmmeta_reorient_transform": [
    [0.0, -1.0, 0.0, 69.0],
    [1.0, 0.0, 0.0, 0.0],
    [0.0, 0.0, 1.0, 0.0],
    [0.0, 0.0, 0.0, 1.0]
],
  "dcmmeta_shape": [70, 70, 34, 237],
  "dcmmeta_slice_dim": 2,
  "dcmmeta_version": 0.6,
  "global": {
    "const": {
      "AccessionNumber": "M.BRZ",
      "AcquisitionMatrix": [70, 0, 0, 70],
      "AngioFlag": "N",
      "BitsAllocated": 16,
      "BitsStored": 12,
      "BodyPartExamined": "HEAD",
      "Columns": 420,
      "EchoNumbers": 1,
      "EchoTime": 30.0,
      "EchoTrainLength": 53,
      "FlipAngle": 90.0,
      "HighBit": 11,
      "ImageOrientationPatient": [0.99664912487402, -0.058947134234, 0.05670764722193, 0.07668795935274, 0.91454693204716, -0.3971433821348],
      "ImagePositionPatient": [-805.78695509344, -656.47866139017, 217.46734759766],
      "ImageType": [
        "ORIGINAL",
        "PRIMARY",
        "M",
        "ND",
        "NORM",
        "MOSAIC"
],
      "ImagedNucleus": "1H",
      "ImagingFrequency": 123.191274,
      "InPlanePhaseEncodingDirection": "COL",
      "MRAcquisitionType": "2D",
      "MagneticFieldStrength": 3.0,
      "Manufacturer": "SIEMENS",
      "ManufacturerModelName": "Prisma",
      "Modality": "MR",
      "NumberOfAverages": 1.0,
      "NumberOfPhaseEncodingSteps": 105,
      "PercentPhaseFieldOfView": 100.0,
      "PercentSampling": 100.0,
      "PerformedProcedureStepStartTime": "144144.494000",
      "PhotometricInterpretation": "MONOCHROME2",
      "PixelBandwidth": 2465.0,
      "PixelRepresentation": 0,
      "PixelSpacing": [3.542857170105, 3.542857170105],
      "ProtocolName": "ep2d_p2_Task_3.5_measurment:237",
      "RepetitionTime": 2000.0,
      "Rows": 420,
      "SAR": 0.07920119930609,
      "SamplesPerPixel": 1,
      "ScanOptions": "FS",
      "ScanningSequence": "EP",
      "SequenceName": "*epfid2d1_70",
      "SequenceVariant": [
        "SK",
        "OSP"
],
      "SeriesDescription": "ep2d_p2_Task_3.5_measurment:237",
      "SeriesNumber": 7,
      "SeriesTime": "151901.485000",
      "SliceLocation": -40.570971194035,
      "SliceThickness": 3.5,
      "SmallestImagePixelValue": 0,
      "SoftwareVersions": "syngo MR E11",
      "SpacingBetweenSlices": 3.8500000016861,
      "SpecificCharacterSet": "ISO_IR 100",
      "StudyID": "1",
      "StudyTime": "144144.418000",
      "TransmitCoilName": "Body",
      "VariableFlipAngleFlag": "N",
      "WindowCenterWidthExplanation": "Algo1",
      "dBdt": 0.0},
    "slices": {}
  },
  "time": {
    "samples": {
      "AcquisitionNumber": [1, 2, 3, 4, 5, 6, 7, 8, 9, 10, 11, 12, 13, 14, 15, 16, 17, 18, 19, 20, 21, 22, 23, 24, 25, 26, 27, 28, 29, 30, 31, 32, 33, 34, 35, 36, 37, 38, 39, 40, 41, 42, 43, 44, 45, 46, 47, 48, 49, 50, 51, 52, 53, 54, 55, 56, 57, 58, 59, 60, 61, 62, 63, 64, 65, 66, 67, 68, 69, 70, 71, 72, 73, 74, 75, 76, 77, 78, 79, 80, 81, 82, 83, 84, 85, 86, 87, 88, 89, 90, 91, 92, 93, 94, 95, 96, 97, 98, 99, 100, 101, 102, 103, 104, 105, 106, 107, 108, 109, 110, 111, 112, 113, 114, 115, 116, 117, 118, 119, 120, 121, 122, 123, 124, 125, 126, 127, 128, 129, 130, 131, 132, 133, 134, 135, 136, 137, 138, 139, 140, 141, 142, 143, 144, 145, 146, 147, 148, 149, 150, 151, 152, 153, 154, 155, 156, 157, 158, 159, 160, 161, 162, 163, 164, 165, 166, 167, 168, 169, 170, 171, 172, 173, 174, 175, 176, 177, 178, 179, 180, 181, 182, 183, 184, 185, 186, 187, 188, 189, 190, 191, 192, 193, 194, 195, 196, 197, 198, 199, 200, 201, 202, 203, 204, 205, 206, 207, 208, 209, 210, 211, 212, 213, 214, 215, 216, 217, 218, 219, 220, 221, 222, 223, 224, 225, 226, 227, 228, 229, 230, 231, 232, 233, 234, 235, 236, 237],
      "AcquisitionTime": ["151812.385000", "151814.385000", "151816.385000", "151818.385000", "151820.385000", "151822.385000", "151824.385000", "151826.385000", "151828.385000", "151830.385000", "151832.385000", "151834.385000", "151836.385000", "151838.385000", "151840.385000", "151842.385000", "151844.385000", "151846.385000", "151848.385000", "151850.385000", "151852.385000", "151854.385000", "151856.385000", "151858.385000", "151900.385000", "151902.385000", "151904.385000", "151906.385000", "151908.385000", "151910.385000", "151912.385000", "151914.385000", "151916.385000", "151918.385000", "151920.385000", "151922.385000", "151924.385000", "151926.385000", "151928.385000", "151930.385000", "151932.385000", "151934.385000", "151936.385000", "151938.385000", "151940.385000", "151942.385000", "151944.385000", "151946.385000", "151948.385000", "151950.385000", "151952.385000", "151954.385000", "151956.385000", "151958.385000", "152000.385000", "152002.385000", "152004.385000", "152006.385000", "152008.385000", "152010.385000", "152012.385000", "152014.385000", "152016.385000", "152018.385000", "152020.385000", "152022.385000", "152024.385000", "152026.385000", "152028.385000", "152030.385000", "152032.385000", "152034.385000", "152036.385000", "152038.385000", "152040.385000", "152042.385000", "152044.385000", "152046.385000", "152048.385000", "152050.385000", "152052.385000", "152054.385000", "152056.385000", "152058.385000", "152100.385000", "152102.385000", "152104.385000", "152106.385000", "152108.385000", "152110.385000", "152112.385000", "152114.385000", "152116.385000", "152118.385000", "152120.385000", "152122.385000", "152124.385000", "152126.385000", "152128.385000", "152130.385000", "152132.385000", "152134.385000", "152136.385000", "152138.385000", "152140.385000", "152142.385000", "152144.385000", "152146.385000", "152148.385000", "152150.385000", "152152.385000", "152154.385000", "152156.385000", "152158.385000", "152200.385000", "152202.385000", "152204.385000", "152206.385000", "152208.385000", "152210.385000", "152212.385000", "152214.385000", "152216.385000", "152218.385000", "152220.385000", "152222.385000", "152224.385000", "152226.385000", "152228.385000", "152230.385000", "152232.385000", "152234.385000", "152236.385000", "152238.385000", "152240.385000", "152242.385000", "152244.385000", "152246.385000", "152248.385000", "152250.385000", "152252.385000", "152254.385000", "152256.385000", "152258.385000", "152300.385000", "152302.385000", "152304.385000", "152306.385000", "152308.385000", "152310.385000", "152312.385000", "152314.385000", "152316.385000", "152318.385000", "152320.385000", "152322.385000", "152324.385000", "152326.385000", "152328.385000", "152330.385000", "152332.385000", "152334.385000", "152336.385000", "152338.385000", "152340.385000", "152342.385000", "152344.385000", "152346.385000", "152348.385000", "152350.385000", "152352.385000", "152354.385000", "152356.385000", "152358.385000", "152400.385000", "152402.385000", "152404.385000", "152406.385000", "152408.385000", "152410.385000", "152412.385000", "152414.385000", "152416.385000", "152418.385000", "152420.385000", "152422.385000", "152424.385000", "152426.385000", "152428.385000", "152430.385000", "152432.385000", "152434.385000", "152436.385000", "152438.385000", "152440.385000", "152442.385000", "152444.385000", "152446.385000", "152448.385000", "152450.385000", "152452.385000", "152454.385000", "152456.385000", "152458.385000", "152500.385000", "152502.385000", "152504.385000", "152506.385000", "152508.385000", "152510.385000", "152512.385000", "152514.385000", "152516.385000", "152518.385000", "152520.385000", "152522.385000", "152524.385000", "152526.385000", "152528.385000", "152530.385000", "152532.385000", "152534.385000", "152536.385000", "152538.385000", "152540.385000", "152542.385000", "152544.385000", "152546.385000", "152548.385000", "152550.385000", "152552.385000", "152554.385000", "152556.385000", "152558.385000", "152600.385000", "152602.385000", "152604.385000"],
      "ContentTime": ["151901.489000", "151901.493000", "151901.496000", "151901.500000", "151901.503000", "151901.506000", "151901.510000", "151901.513000", "151901.516000", "151901.519000", "151901.522000", "151901.526000", "151901.529000", "151901.532000", "151901.535000", "151901.538000", "151901.542000", "151901.545000", "151901.548000", "151901.551000", "151901.554000", "151901.558000", "151901.561000", "151901.564000", "151941.482000", "151941.485000", "151941.489000", "151941.492000", "151941.495000", "151941.498000", "151941.501000", "151941.505000", "151941.508000", "151941.511000", "151941.514000", "151941.517000", "151941.521000", "151941.524000", "151941.530000", "151941.534000", "151941.538000", "151941.541000", "151941.544000", "151941.547000", "152021.482000", "152021.485000", "152021.488000", "152021.490000", "152021.493000", "152021.495000", "152021.498000", "152021.500000", "152021.503000", "152021.505000", "152021.508000", "152021.510000", "152021.513000", "152021.515000", "152021.530000", "152021.533000", "152021.535000", "152021.537000", "152021.540000", "152021.542000", "152101.484000", "152101.487000", "152101.491000", "152101.494000", "152101.498000", "152101.501000", "152101.505000", "152101.508000", "152101.512000", "152101.515000", "152101.521000", "152101.525000", "152101.529000", "152101.533000", "152101.536000", "152101.540000", "152101.543000", "152101.546000", "152101.550000", "152101.553000", "152141.483000", "152141.487000", "152141.490000", "152141.493000", "152141.496000", "152141.500000", "152141.503000", "152141.506000", "152141.510000", "152141.513000", "152141.516000", "152141.520000", "152141.523000", "152141.526000", "152141.530000", "152141.533000", "152141.536000", "152141.539000", "152141.543000", "152141.546000", "152221.483000", "152221.486000", "152221.488000", "152221.491000", "152221.493000", "152221.496000", "152221.498000", "152221.501000", "152221.504000", "152221.506000", "152221.509000", "152221.511000", "152221.514000", "152221.516000", "152221.519000", "152221.521000", "152221.524000", "152221.527000", "152221.529000", "152221.532000", "152241.483000", "152241.487000", "152241.490000", "152241.494000", "152241.497000", "152241.500000", "152241.503000", "152241.507000", "152241.510000", "152241.513000", "152321.483000", "152321.486000", "152321.488000", "152321.492000", "152321.494000", "152321.497000", "152321.500000", "152321.502000", "152321.505000", "152321.507000", "152321.510000", "152321.513000", "152321.515000", "152321.518000", "152321.521000", "152321.524000", "152321.526000", "152321.529000", "152321.531000", "152321.534000", "152401.483000", "152401.486000", "152401.490000", "152401.493000", "152401.496000", "152401.499000", "152401.503000", "152401.506000", "152401.510000", "152401.513000", "152401.517000", "152401.520000", "152401.523000", "152401.527000", "152401.530000", "152401.533000", "152401.537000", "152401.540000", "152401.543000", "152401.546000", "152441.483000", "152441.486000", "152441.490000", "152441.493000", "152441.497000", "152441.500000", "152441.503000", "152441.506000", "152441.510000", "152441.513000", "152441.516000", "152441.520000", "152441.523000", "152441.526000", "152441.529000", "152441.533000", "152441.537000", "152441.540000", "152441.543000", "152441.546000", "152521.483000", "152521.485000", "152521.488000", "152521.491000", "152521.493000", "152521.496000", "152521.498000", "152521.501000", "152521.504000", "152521.507000", "152521.509000", "152521.512000", "152521.515000", "152521.517000", "152521.520000", "152521.522000", "152521.525000", "152521.527000", "152521.530000", "152521.533000", "152601.484000", "152601.488000", "152601.491000", "152601.495000", "152601.498000", "152601.501000", "152601.504000", "152601.508000", "152601.511000", "152601.514000", "152601.517000", "152601.521000", "152601.524000", "152601.527000", "152601.530000", "152601.534000", "152601.537000", "152601.540000", "152601.543000", "152601.547000", "152605.944000", "152605.948000", "152605.952000"],
      "InstanceCreationTime": ["151901.489000", "151901.493000", "151901.496000", "151901.500000", "151901.503000", "151901.506000", "151901.510000", "151901.513000", "151901.516000", "151901.519000", "151901.522000", "151901.526000", "151901.529000", "151901.532000", "151901.535000", "151901.538000", "151901.542000", "151901.545000", "151901.548000", "151901.551000", "151901.554000", "151901.558000", "151901.561000", "151901.564000", "151941.482000", "151941.485000", "151941.489000", "151941.492000", "151941.495000", "151941.498000", "151941.501000", "151941.505000", "151941.508000", "151941.511000", "151941.514000", "151941.517000", "151941.521000", "151941.524000", "151941.530000", "151941.534000", "151941.538000", "151941.541000", "151941.544000", "151941.547000", "152021.482000", "152021.485000", "152021.488000", "152021.490000", "152021.493000", "152021.495000", "152021.498000", "152021.500000", "152021.503000", "152021.505000", "152021.508000", "152021.510000", "152021.513000", "152021.515000", "152021.530000", "152021.533000", "152021.535000", "152021.537000", "152021.540000", "152021.542000", "152101.484000", "152101.487000", "152101.491000", "152101.494000", "152101.498000", "152101.501000", "152101.505000", "152101.508000", "152101.512000", "152101.515000", "152101.521000", "152101.525000", "152101.529000", "152101.533000", "152101.536000", "152101.540000", "152101.543000", "152101.546000", "152101.550000", "152101.553000", "152141.483000", "152141.487000", "152141.490000", "152141.493000", "152141.496000", "152141.500000", "152141.503000", "152141.506000", "152141.510000", "152141.513000", "152141.516000", "152141.520000", "152141.523000", "152141.526000", "152141.530000", "152141.533000", "152141.536000", "152141.539000", "152141.543000", "152141.546000", "152221.483000", "152221.486000", "152221.488000", "152221.491000", "152221.493000", "152221.496000", "152221.498000", "152221.501000", "152221.504000", "152221.506000", "152221.509000", "152221.511000", "152221.514000", "152221.516000", "152221.519000", "152221.521000", "152221.524000", "152221.527000", "152221.529000", "152221.532000", "152241.483000", "152241.487000", "152241.490000", "152241.494000", "152241.497000", "152241.500000", "152241.503000", "152241.507000", "152241.510000", "152241.513000", "152321.483000", "152321.486000", "152321.488000", "152321.492000", "152321.494000", "152321.497000", "152321.500000", "152321.502000", "152321.505000", "152321.507000", "152321.510000", "152321.513000", "152321.515000", "152321.518000", "152321.521000", "152321.524000", "152321.526000", "152321.529000", "152321.531000", "152321.534000", "152401.483000", "152401.486000", "152401.490000", "152401.493000", "152401.496000", "152401.499000", "152401.503000", "152401.506000", "152401.510000", "152401.513000", "152401.517000", "152401.520000", "152401.523000", "152401.527000", "152401.530000", "152401.533000", "152401.537000", "152401.540000", "152401.543000", "152401.546000", "152441.483000", "152441.486000", "152441.490000", "152441.493000", "152441.497000", "152441.500000", "152441.503000", "152441.506000", "152441.510000", "152441.513000", "152441.516000", "152441.520000", "152441.523000", "152441.526000", "152441.529000", "152441.533000", "152441.537000", "152441.540000", "152441.543000", "152441.546000", "152521.483000", "152521.485000", "152521.488000", "152521.491000", "152521.493000", "152521.496000", "152521.498000", "152521.501000", "152521.504000", "152521.507000", "152521.509000", "152521.512000", "152521.515000", "152521.517000", "152521.520000", "152521.522000", "152521.525000", "152521.527000", "152521.530000", "152521.533000", "152601.484000", "152601.488000", "152601.491000", "152601.495000", "152601.498000", "152601.501000", "152601.504000", "152601.508000", "152601.511000", "152601.514000", "152601.517000", "152601.521000", "152601.524000", "152601.527000", "152601.530000", "152601.534000", "152601.537000", "152601.540000", "152601.543000", "152601.547000", "152605.944000", "152605.948000", "152605.952000"],
      "InstanceNumber": [1, 2, 3, 4, 5, 6, 7, 8, 9, 10, 11, 12, 13, 14, 15, 16, 17, 18, 19, 20, 21, 22, 23, 24, 25, 26, 27, 28, 29, 30, 31, 32, 33, 34, 35, 36, 37, 38, 39, 40, 41, 42, 43, 44, 45, 46, 47, 48, 49, 50, 51, 52, 53, 54, 55, 56, 57, 58, 59, 60, 61, 62, 63, 64, 65, 66, 67, 68, 69, 70, 71, 72, 73, 74, 75, 76, 77, 78, 79, 80, 81, 82, 83, 84, 85, 86, 87, 88, 89, 90, 91, 92, 93, 94, 95, 96, 97, 98, 99, 100, 101, 102, 103, 104, 105, 106, 107, 108, 109, 110, 111, 112, 113, 114, 115, 116, 117, 118, 119, 120, 121, 122, 123, 124, 125, 126, 127, 128, 129, 130, 131, 132, 133, 134, 135, 136, 137, 138, 139, 140, 141, 142, 143, 144, 145, 146, 147, 148, 149, 150, 151, 152, 153, 154, 155, 156, 157, 158, 159, 160, 161, 162, 163, 164, 165, 166, 167, 168, 169, 170, 171, 172, 173, 174, 175, 176, 177, 178, 179, 180, 181, 182, 183, 184, 185, 186, 187, 188, 189, 190, 191, 192, 193, 194, 195, 196, 197, 198, 199, 200, 201, 202, 203, 204, 205, 206, 207, 208, 209, 210, 211, 212, 213, 214, 215, 216, 217, 218, 219, 220, 221, 222, 223, 224, 225, 226, 227, 228, 229, 230, 231, 232, 233, 234, 235, 236, 237],
      "LargestImagePixelValue": [2169, 2849, 1854, 1772, 2217, 2056, 1849, 1891, 2398, 1905, 2107, 1789, 2678, 2177, 1695, 2573, 2005, 1787, 2264, 2119, 1778, 1770, 1737, 2319, 1760, 1940, 1996, 1800, 2698, 1794, 1734, 1949, 2717, 2157, 1756, 2813, 1856, 1690, 2584, 1648, 1716, 2147, 1683, 1654, 2488, 2377, 1649, 1710, 2580, 1619, 2325, 1628, 2082, 1964, 1778, 2373, 1964, 1672, 1727, 2545, 1819, 1702, 2667, 1711, 1642, 2714, 1850, 1665, 2190, 1630, 1689, 2792, 1825, 2685, 1815, 1868, 1938, 1680, 2143, 1637, 2055, 1633, 1798, 2391, 1697, 1823, 2881, 1784, 1660, 2711, 1883, 1722, 1938, 1665, 2185, 2010, 1695, 2641, 1687, 1729, 2364, 1627, 2054, 2158, 1788, 2490, 1670, 2234, 1598, 1936, 1619, 1688, 2082, 1695, 2425, 1631, 2482, 1653, 2407, 2095, 1895, 2181, 1616, 2410, 1928, 1656, 2695, 1784, 1625, 2460, 1614, 2109, 2419, 1820, 2226, 1655, 2155, 1645, 2679, 1727, 1689, 2163, 1674, 2791, 1784, 1645, 2378, 1973, 1942, 2494, 1656, 1625, 2160, 1623, 2486, 1614, 1973, 2666, 1792, 2490, 1718, 2246, 1848, 1697, 2347, 1638, 1824, 2281, 1620, 1678, 2492, 1898, 2009, 1999, 1613, 2200, 1794, 1645, 1820, 2080, 2110, 2164, 1766, 2854, 1759, 2166, 1780, 1626, 1954, 1674, 2108, 1625, 2285, 1620, 2382, 1651, 2090, 1669, 2499, 1855, 1627, 2766, 1711, 1630, 2490, 1632, 2406, 1623, 1949, 1632, 2253, 1917, 1850, 1623, 1796, 2098, 1988, 2144, 1666, 2162, 1864, 1646, 2156, 1632, 1692, 2874, 1715, 2475, 1780, 1616, 2498, 1616, 1908, 1611, 2086, 1618, 2349],
      "WindowCenter": [682.0, 682.0, 679.0, 678.0, 680.0, 680.0, 680.0, 680.0, 681.0, 680.0, 680.0, 679.0, 681.0, 680.0, 679.0, 681.0, 679.0, 678.0, 680.0, 680.0, 679.0, 679.0, 679.0, 680.0, 678.0, 679.0, 680.0, 679.0, 681.0, 679.0, 679.0, 680.0, 681.0, 680.0, 678.0, 681.0, 679.0, 679.0, 680.0, 678.0, 678.0, 680.0, 679.0, 679.0, 681.0, 680.0, 678.0, 678.0, 680.0, 677.0, 679.0, 678.0, 679.0, 680.0, 679.0, 681.0, 680.0, 679.0, 679.0, 681.0, 679.0, 678.0, 681.0, 679.0, 678.0, 681.0, 679.0, 678.0, 680.0, 678.0, 679.0, 681.0, 679.0, 680.0, 678.0, 678.0, 679.0, 678.0, 679.0, 678.0, 680.0, 679.0, 679.0, 680.0, 679.0, 679.0, 681.0, 678.0, 678.0, 680.0, 679.0, 678.0, 679.0, 679.0, 680.0, 680.0, 679.0, 681.0, 679.0, 679.0, 680.0, 678.0, 680.0, 680.0, 679.0, 680.0, 678.0, 679.0, 677.0, 679.0, 678.0, 679.0, 680.0, 678.0, 680.0, 678.0, 680.0, 678.0, 680.0, 679.0, 679.0, 679.0, 678.0, 680.0, 679.0, 679.0, 681.0, 679.0, 678.0, 681.0, 678.0, 679.0, 680.0, 678.0, 679.0, 678.0, 680.0, 678.0, 681.0, 679.0, 678.0, 680.0, 678.0, 681.0, 679.0, 678.0, 680.0, 679.0, 679.0, 680.0, 678.0, 678.0, 680.0, 678.0, 680.0, 678.0, 679.0, 680.0, 678.0, 680.0, 678.0, 680.0, 679.0, 678.0, 680.0, 678.0, 679.0, 680.0, 678.0, 678.0, 681.0, 680.0, 679.0, 679.0, 678.0, 680.0, 679.0, 679.0, 679.0, 680.0, 680.0, 680.0, 678.0, 681.0, 678.0, 679.0, 678.0, 678.0, 679.0, 678.0, 679.0, 678.0, 680.0, 678.0, 680.0, 678.0, 680.0, 678.0, 680.0, 679.0, 678.0, 681.0, 679.0, 678.0, 680.0, 678.0, 680.0, 678.0, 679.0, 678.0, 680.0, 679.0, 678.0, 678.0, 679.0, 680.0, 679.0, 679.0, 678.0, 680.0, 679.0, 678.0, 680.0, 679.0, 679.0, 681.0, 678.0, 680.0, 678.0, 678.0, 680.0, 678.0, 679.0, 678.0, 679.0, 678.0, 679.0],
      "WindowWidth": [1514.0, 1514.0, 1504.0, 1502.0, 1508.0, 1510.0, 1508.0, 1507.0, 1511.0, 1509.0, 1510.0, 1504.0, 1514.0, 1509.0, 1504.0, 1512.0, 1505.0, 1502.0, 1509.0, 1508.0, 1505.0, 1504.0, 1505.0, 1510.0, 1502.0, 1505.0, 1509.0, 1506.0, 1512.0, 1504.0, 1506.0, 1507.0, 1513.0, 1508.0, 1503.0, 1512.0, 1505.0, 1503.0, 1510.0, 1501.0, 1502.0, 1509.0, 1505.0, 1505.0, 1511.0, 1509.0, 1502.0, 1503.0, 1509.0, 1499.0, 1506.0, 1500.0, 1506.0, 1507.0, 1505.0, 1511.0, 1508.0, 1505.0, 1505.0, 1511.0, 1503.0, 1503.0, 1512.0, 1504.0, 1502.0, 1512.0, 1504.0, 1501.0, 1508.0, 1503.0, 1504.0, 1513.0, 1504.0, 1508.0, 1502.0, 1502.0, 1505.0, 1501.0, 1504.0, 1500.0, 1507.0, 1504.0, 1506.0, 1510.0, 1503.0, 1504.0, 1511.0, 1503.0, 1502.0, 1510.0, 1504.0, 1501.0, 1504.0, 1504.0, 1509.0, 1507.0, 1503.0, 1512.0, 1504.0, 1504.0, 1509.0, 1500.0, 1507.0, 1509.0, 1505.0, 1509.0, 1500.0, 1505.0, 1499.0, 1504.0, 1502.0, 1504.0, 1508.0, 1503.0, 1510.0, 1501.0, 1510.0, 1502.0, 1508.0, 1505.0, 1503.0, 1506.0, 1501.0, 1509.0, 1506.0, 1503.0, 1511.0, 1504.0, 1502.0, 1510.0, 1502.0, 1506.0, 1507.0, 1502.0, 1506.0, 1502.0, 1508.0, 1502.0, 1511.0, 1503.0, 1503.0, 1508.0, 1502.0, 1512.0, 1504.0, 1502.0, 1510.0, 1506.0, 1506.0, 1510.0, 1502.0, 1502.0, 1507.0, 1501.0, 1508.0, 1500.0, 1503.0, 1508.0, 1502.0, 1509.0, 1503.0, 1508.0, 1504.0, 1501.0, 1508.0, 1503.0, 1505.0, 1508.0, 1501.0, 1502.0, 1512.0, 1507.0, 1506.0, 1505.0, 1502.0, 1509.0, 1505.0, 1504.0, 1506.0, 1507.0, 1508.0, 1507.0, 1503.0, 1511.0, 1501.0, 1506.0, 1503.0, 1501.0, 1505.0, 1502.0, 1505.0, 1501.0, 1508.0, 1501.0, 1507.0, 1501.0, 1507.0, 1502.0, 1510.0, 1505.0, 1501.0, 1512.0, 1503.0, 1503.0, 1510.0, 1501.0, 1507.0, 1501.0, 1504.0, 1501.0, 1507.0, 1503.0, 1502.0, 1500.0, 1504.0, 1507.0, 1504.0, 1505.0, 1501.0, 1508.0, 1504.0, 1502.0, 1509.0, 1503.0, 1503.0, 1513.0, 1503.0, 1509.0, 1503.0, 1502.0, 1509.0, 1501.0, 1504.0, 1500.0, 1506.0, 1501.0, 1507.0]
    },
    "slices": {}
  }
}