{
  "AcquisitionMatrixPE": 70,
  "AcquisitionNumber": 1,
  "AcquisitionTime": "13:04:3.432500",
  "BandwidthPerPixelPhaseEncode": 38.873,
  "BaseResolution": 70,
  "BodyPartExamined": "HEAD",
  "ConsistencyInfo": "N4_VE11B_LATEST_20150530",
  "ConversionSoftware": "dcm2niix",
  "ConversionSoftwareVersion": "v1.0.20190410  GCC6.3.0",
  "DerivedVendorReportedEchoSpacing": 0.000489996,
  "DeviceSerialNumber": "66088",
  "DwellTime": 2.9e-06,
  "EchoTime": 0.03,
  "EchoTrainLength": 53,
  "EffectiveEchoSpacing": 0.000367497,
  "FlipAngle": 90,
  "ImageOrientationPatientDICOM": [0.999779, -0.0194944, 0.0078088, 0.0209424, 0.897955, -0.439589],
  "ImageType": [
    "ORIGINAL",
    "PRIMARY",
    "M",
    "ND",
    "NORM",
    "MOSAIC"
],
  "ImagingFrequency": 123.191,
  "InPlanePhaseEncodingDirectionDICOM": "COL",
  "InstitutionAddress": "Street_StreetNo_City_District_IR_ZIP",
  "InstitutionName": "NBML",
  "InstitutionalDepartmentName": "Department",
  "MRAcquisitionType": "2D",
  "MagneticFieldStrength": 3,
  "Manufacturer": "Siemens",
  "ManufacturersModelName": "Prisma",
  "Modality": "MR",
  "ParallelReductionFactorInPlane": 2,
  "PartialFourier": 1,
  "PatientPosition": "HFS",
  "PercentPhaseFOV": 100,
  "PhaseEncodingDirection": "j-",
  "PhaseEncodingSteps": 105,
  "PhaseOversampling": 0.5,
  "PhaseResolution": 1,
  "PixelBandwidth": 2465,
  "ProcedureStepDescription": "NBML_Project_P-96169-Ebrahiminiya",
  "ProtocolName": "ep2d_p2_Task_3.5_measurment:237",
  "PulseSequenceDetails": "%SiemensSeq%_ep2d_pace",
  "ReceiveCoilActiveElements": "HC1-7;NC1",
  "ReceiveCoilName": "HeadNeck_64",
  "ReconMatrixPE": 70,
  "RefLinesPE": 24,
  "RepetitionTime": 2,
  "SAR": 0.0908239,
  "ScanOptions": "FS",
  "ScanningSequence": "EP",
  "SequenceName": "_epfid2d1_70",
  "SequenceVariant": "SK_OSP",
  "SeriesDescription": "ep2d_p2_Task_3.5_measurment:237",
  "SeriesNumber": 9,
  "ShimSetting": [2595, -4469, -3211, 397, 38, 78, -86, 17],
  "SliceThickness": 3.5,
  "SliceTiming": [0.99, 0, 1.0475, 0.0575, 1.1075, 0.1175, 1.165, 0.175, 1.2225, 0.2325, 1.2825, 0.2925, 1.34, 0.35, 1.3975, 0.4075, 1.455, 0.465, 1.515, 0.525, 1.5725, 0.5825, 1.63, 0.64, 1.69, 0.7, 1.7475, 0.7575, 1.805, 0.815, 1.8625, 0.875, 1.9225, 0.9325],
  "SoftwareVersions": "syngo_MR_E11",
  "SpacingBetweenSlices": 3.85,
  "StationName": "AWP66088",
  "TaskName": "categorySelectivity",
  "TotalReadoutTime": 0.0253573,
  "TxRefAmp": 220.126,
  "dcmmeta_affine": [
    [-3.5420758724212646, 0.07419600337743759, -0.005996745079755783, 124.1137924194336],
    [0.06906605511903763, 3.1813254356384277, -1.6926747560501099, -83.88861083984375],
    [0.027665480971336365, 1.5574017763137817, 3.457935333251953, -86.84864807128906],
    [0.0, 0.0, 0.0, 1.0]
],
  "dcmmeta_reorient_transform": [
    [0.0, -1.0, 0.0, 69.0],
    [1.0, 0.0, 0.0, 0.0],
    [0.0, 0.0, 1.0, 0.0],
    [0.0, 0.0, 0.0, 1.0]
],
  "dcmmeta_shape": [70, 70, 34, 237],
  "dcmmeta_slice_dim": 2,
  "dcmmeta_version": 0.6,
  "global": {
    "const": {
      "AccessionNumber": "M.BRZ",
      "AcquisitionMatrix": [70, 0, 0, 70],
      "AngioFlag": "N",
      "BitsAllocated": 16,
      "BitsStored": 12,
      "BodyPartExamined": "HEAD",
      "Columns": 420,
      "EchoNumbers": 1,
      "EchoTime": 30.0,
      "EchoTrainLength": 53,
      "FlipAngle": 90.0,
      "HighBit": 11,
      "ImageOrientationPatient": [0.99977947016852, -0.0194944503631, 0.00780880494023, 0.02094241924877, 0.89795476365129, -0.4395891917597],
      "ImagePositionPatient": [-762.08089490608, -680.26824756797, 288.31591458567],
      "ImageType": [
        "ORIGINAL",
        "PRIMARY",
        "M",
        "ND",
        "NORM",
        "MOSAIC"
],
      "ImagedNucleus": "1H",
      "ImagingFrequency": 123.191135,
      "InPlanePhaseEncodingDirection": "COL",
      "MRAcquisitionType": "2D",
      "MagneticFieldStrength": 3.0,
      "Manufacturer": "SIEMENS",
      "ManufacturerModelName": "Prisma",
      "Modality": "MR",
      "NumberOfAverages": 1.0,
      "NumberOfPhaseEncodingSteps": 105,
      "PercentPhaseFieldOfView": 100.0,
      "PercentSampling": 100.0,
      "PerformedProcedureStepStartTime": "120151.768000",
      "PhotometricInterpretation": "MONOCHROME2",
      "PixelBandwidth": 2465.0,
      "PixelRepresentation": 0,
      "PixelSpacing": [3.542857170105, 3.542857170105],
      "ProtocolName": "ep2d_p2_Task_3.5_measurment:237",
      "RepetitionTime": 2000.0,
      "Rows": 420,
      "SAR": 0.09082385061851,
      "SamplesPerPixel": 1,
      "ScanOptions": "FS",
      "ScanningSequence": "EP",
      "SequenceName": "*epfid2d1_70",
      "SequenceVariant": [
        "SK",
        "OSP"
],
      "SeriesDescription": "ep2d_p2_Task_3.5_measurment:237",
      "SeriesNumber": 9,
      "SeriesTime": "130459.203000",
      "SliceLocation": -41.315621194993,
      "SliceThickness": 3.5,
      "SmallestImagePixelValue": 0,
      "SoftwareVersions": "syngo MR E11",
      "SpacingBetweenSlices": 3.8499999673427,
      "SpecificCharacterSet": "ISO_IR 100",
      "StudyID": "1",
      "StudyTime": "120151.680000",
      "TransmitCoilName": "Body",
      "VariableFlipAngleFlag": "N",
      "WindowCenterWidthExplanation": "Algo1",
      "dBdt": 0.0},
    "slices": {}
  },
  "time": {
    "samples": {
      "AcquisitionNumber": [1, 2, 3, 4, 5, 6, 7, 8, 9, 10, 11, 12, 13, 14, 15, 16, 17, 18, 19, 20, 21, 22, 23, 24, 25, 26, 27, 28, 29, 30, 31, 32, 33, 34, 35, 36, 37, 38, 39, 40, 41, 42, 43, 44, 45, 46, 47, 48, 49, 50, 51, 52, 53, 54, 55, 56, 57, 58, 59, 60, 61, 62, 63, 64, 65, 66, 67, 68, 69, 70, 71, 72, 73, 74, 75, 76, 77, 78, 79, 80, 81, 82, 83, 84, 85, 86, 87, 88, 89, 90, 91, 92, 93, 94, 95, 96, 97, 98, 99, 100, 101, 102, 103, 104, 105, 106, 107, 108, 109, 110, 111, 112, 113, 114, 115, 116, 117, 118, 119, 120, 121, 122, 123, 124, 125, 126, 127, 128, 129, 130, 131, 132, 133, 134, 135, 136, 137, 138, 139, 140, 141, 142, 143, 144, 145, 146, 147, 148, 149, 150, 151, 152, 153, 154, 155, 156, 157, 158, 159, 160, 161, 162, 163, 164, 165, 166, 167, 168, 169, 170, 171, 172, 173, 174, 175, 176, 177, 178, 179, 180, 181, 182, 183, 184, 185, 186, 187, 188, 189, 190, 191, 192, 193, 194, 195, 196, 197, 198, 199, 200, 201, 202, 203, 204, 205, 206, 207, 208, 209, 210, 211, 212, 213, 214, 215, 216, 217, 218, 219, 220, 221, 222, 223, 224, 225, 226, 227, 228, 229, 230, 231, 232, 233, 234, 235, 236, 237],
      "AcquisitionTime": ["130403.432500", "130405.432500", "130407.432500", "130409.432500", "130411.432500", "130413.432500", "130415.432500", "130417.432500", "130419.432500", "130421.432500", "130423.432500", "130425.432500", "130427.432500", "130429.432500", "130431.432500", "130433.432500", "130435.432500", "130437.432500", "130439.432500", "130441.432500", "130443.432500", "130445.432500", "130447.432500", "130449.432500", "130451.432500", "130453.432500", "130455.432500", "130457.432500", "130459.432500", "130501.432500", "130503.432500", "130505.432500", "130507.432500", "130509.432500", "130511.432500", "130513.432500", "130515.432500", "130517.432500", "130519.432500", "130521.432500", "130523.432500", "130525.432500", "130527.432500", "130529.432500", "130531.432500", "130533.432500", "130535.432500", "130537.432500", "130539.432500", "130541.432500", "130543.432500", "130545.432500", "130547.432500", "130549.432500", "130551.432500", "130553.432500", "130555.432500", "130557.432500", "130559.432500", "130601.432500", "130603.432500", "130605.432500", "130607.432500", "130609.432500", "130611.432500", "130613.432500", "130615.432500", "130617.432500", "130619.432500", "130621.432500", "130623.432500", "130625.432500", "130627.432500", "130629.432500", "130631.432500", "130633.432500", "130635.432500", "130637.432500", "130639.432500", "130641.432500", "130643.432500", "130645.432500", "130647.432500", "130649.432500", "130651.432500", "130653.432500", "130655.432500", "130657.432500", "130659.432500", "130701.432500", "130703.432500", "130705.432500", "130707.432500", "130709.432500", "130711.432500", "130713.432500", "130715.432500", "130717.432500", "130719.432500", "130721.432500", "130723.432500", "130725.432500", "130727.432500", "130729.432500", "130731.432500", "130733.432500", "130735.432500", "130737.432500", "130739.432500", "130741.432500", "130743.432500", "130745.432500", "130747.432500", "130749.432500", "130751.432500", "130753.432500", "130755.432500", "130757.432500", "130759.432500", "130801.432500", "130803.432500", "130805.432500", "130807.432500", "130809.432500", "130811.432500", "130813.432500", "130815.432500", "130817.432500", "130819.432500", "130821.432500", "130823.432500", "130825.432500", "130827.432500", "130829.432500", "130831.432500", "130833.432500", "130835.432500", "130837.432500", "130839.432500", "130841.432500", "130843.432500", "130845.432500", "130847.432500", "130849.432500", "130851.432500", "130853.432500", "130855.432500", "130857.432500", "130859.432500", "130901.432500", "130903.432500", "130905.432500", "130907.432500", "130909.432500", "130911.432500", "130913.432500", "130915.432500", "130917.432500", "130919.432500", "130921.432500", "130923.432500", "130925.432500", "130927.432500", "130929.432500", "130931.432500", "130933.432500", "130935.432500", "130937.432500", "130939.432500", "130941.432500", "130943.432500", "130945.432500", "130947.432500", "130949.432500", "130951.432500", "130953.432500", "130955.432500", "130957.432500", "130959.432500", "131001.432500", "131003.432500", "131005.432500", "131007.432500", "131009.432500", "131011.432500", "131013.432500", "131015.432500", "131017.432500", "131019.432500", "131021.432500", "131023.432500", "131025.432500", "131027.432500", "131029.432500", "131031.432500", "131033.432500", "131035.432500", "131037.432500", "131039.432500", "131041.432500", "131043.432500", "131045.432500", "131047.432500", "131049.432500", "131051.432500", "131053.432500", "131055.432500", "131057.432500", "131059.432500", "131101.432500", "131103.432500", "131105.432500", "131107.432500", "131109.432500", "131111.432500", "131113.432500", "131115.432500", "131117.432500", "131119.432500", "131121.432500", "131123.432500", "131125.432500", "131127.432500", "131129.432500", "131131.432500", "131133.432500", "131135.432500", "131137.432500", "131139.432500", "131141.432500", "131143.432500", "131145.432500", "131147.432500", "131149.432500", "131151.432500", "131153.432500", "131155.432500"],
      "ContentTime": ["130459.206000", "130459.210000", "130459.212000", "130459.214000", "130459.217000", "130459.219000", "130459.222000", "130459.224000", "130459.233000", "130459.236000", "130459.238000", "130459.241000", "130459.243000", "130459.246000", "130459.248000", "130459.251000", "130459.253000", "130459.255000", "130459.258000", "130459.260000", "130459.263000", "130459.265000", "130459.268000", "130459.270000", "130459.272000", "130459.275000", "130459.277000", "130459.279000", "130539.197000", "130539.201000", "130539.213000", "130539.217000", "130539.220000", "130539.223000", "130539.226000", "130539.229000", "130539.232000", "130539.236000", "130539.239000", "130539.242000", "130539.245000", "130539.248000", "130539.252000", "130539.255000", "130539.258000", "130539.261000", "130539.264000", "130539.268000", "130619.195000", "130619.199000", "130619.202000", "130619.205000", "130619.208000", "130619.212000", "130619.215000", "130619.218000", "130619.221000", "130619.224000", "130619.228000", "130619.231000", "130619.234000", "130619.238000", "130619.241000", "130619.245000", "130619.258000", "130619.261000", "130619.264000", "130619.267000", "130659.196000", "130659.198000", "130659.201000", "130659.203000", "130659.206000", "130659.208000", "130659.210000", "130659.213000", "130659.215000", "130659.218000", "130659.220000", "130659.223000", "130659.225000", "130659.227000", "130659.230000", "130659.232000", "130659.235000", "130659.237000", "130659.240000", "130659.242000", "130739.196000", "130739.199000", "130739.203000", "130739.206000", "130739.209000", "130739.212000", "130739.216000", "130739.219000", "130739.222000", "130739.225000", "130739.247000", "130739.250000", "130739.254000", "130739.257000", "130739.260000", "130739.263000", "130739.267000", "130739.270000", "130739.273000", "130739.276000", "130819.195000", "130819.199000", "130819.202000", "130819.205000", "130819.209000", "130819.212000", "130819.215000", "130819.218000", "130819.221000", "130819.225000", "130819.228000", "130819.231000", "130819.234000", "130819.238000", "130819.241000", "130819.244000", "130819.247000", "130819.251000", "130819.254000", "130819.257000", "130859.195000", "130859.198000", "130859.200000", "130859.203000", "130859.205000", "130859.208000", "130859.210000", "130859.213000", "130859.215000", "130859.218000", "130859.220000", "130859.223000", "130859.225000", "130859.227000", "130859.230000", "130859.232000", "130859.235000", "130859.237000", "130859.239000", "130859.242000", "130939.197000", "130939.201000", "130939.205000", "130939.208000", "130939.211000", "130939.214000", "130939.218000", "130939.221000", "130939.224000", "130939.228000", "130939.231000", "130939.234000", "130939.238000", "130939.241000", "130939.244000", "130939.248000", "130939.251000", "130939.255000", "130939.259000", "130939.262000", "131019.196000", "131019.200000", "131019.203000", "131019.206000", "131019.209000", "131019.212000", "131019.216000", "131019.219000", "131019.222000", "131019.225000", "131019.228000", "131019.231000", "131019.234000", "131019.237000", "131019.248000", "131019.252000", "131019.255000", "131019.258000", "131019.261000", "131019.264000", "131059.196000", "131059.198000", "131059.201000", "131059.203000", "131059.206000", "131059.208000", "131059.210000", "131059.213000", "131059.215000", "131059.218000", "131059.220000", "131059.223000", "131059.225000", "131059.227000", "131059.230000", "131059.232000", "131059.235000", "131059.237000", "131059.240000", "131059.242000", "131139.196000", "131139.199000", "131139.202000", "131139.204000", "131139.207000", "131139.209000", "131139.212000", "131139.215000", "131139.217000", "131139.220000", "131139.223000", "131139.225000", "131139.228000", "131139.230000", "131139.233000", "131139.236000", "131139.238000", "131139.241000", "131139.243000", "131139.246000", "131156.786000", "131156.788000", "131156.791000", "131156.793000", "131156.796000", "131156.798000", "131156.801000", "131156.804000", "131156.806000"],
      "InstanceCreationTime": ["130459.206000", "130459.210000", "130459.212000", "130459.214000", "130459.217000", "130459.219000", "130459.222000", "130459.224000", "130459.233000", "130459.236000", "130459.238000", "130459.241000", "130459.243000", "130459.246000", "130459.248000", "130459.251000", "130459.253000", "130459.255000", "130459.258000", "130459.260000", "130459.263000", "130459.265000", "130459.268000", "130459.270000", "130459.272000", "130459.275000", "130459.277000", "130459.279000", "130539.197000", "130539.201000", "130539.213000", "130539.217000", "130539.220000", "130539.223000", "130539.226000", "130539.229000", "130539.232000", "130539.236000", "130539.239000", "130539.242000", "130539.245000", "130539.248000", "130539.252000", "130539.255000", "130539.258000", "130539.261000", "130539.264000", "130539.268000", "130619.195000", "130619.199000", "130619.202000", "130619.205000", "130619.208000", "130619.212000", "130619.215000", "130619.218000", "130619.221000", "130619.224000", "130619.228000", "130619.231000", "130619.234000", "130619.238000", "130619.241000", "130619.245000", "130619.258000", "130619.261000", "130619.264000", "130619.267000", "130659.196000", "130659.198000", "130659.201000", "130659.203000", "130659.206000", "130659.208000", "130659.210000", "130659.213000", "130659.215000", "130659.218000", "130659.220000", "130659.223000", "130659.225000", "130659.227000", "130659.230000", "130659.232000", "130659.235000", "130659.237000", "130659.240000", "130659.242000", "130739.196000", "130739.199000", "130739.203000", "130739.206000", "130739.209000", "130739.212000", "130739.216000", "130739.219000", "130739.222000", "130739.225000", "130739.247000", "130739.250000", "130739.254000", "130739.257000", "130739.260000", "130739.263000", "130739.267000", "130739.270000", "130739.273000", "130739.276000", "130819.195000", "130819.199000", "130819.202000", "130819.205000", "130819.209000", "130819.212000", "130819.215000", "130819.218000", "130819.221000", "130819.225000", "130819.228000", "130819.231000", "130819.234000", "130819.238000", "130819.241000", "130819.244000", "130819.247000", "130819.251000", "130819.254000", "130819.257000", "130859.195000", "130859.198000", "130859.200000", "130859.203000", "130859.205000", "130859.208000", "130859.210000", "130859.213000", "130859.215000", "130859.218000", "130859.220000", "130859.223000", "130859.225000", "130859.227000", "130859.230000", "130859.232000", "130859.235000", "130859.237000", "130859.239000", "130859.242000", "130939.197000", "130939.201000", "130939.205000", "130939.208000", "130939.211000", "130939.214000", "130939.218000", "130939.221000", "130939.224000", "130939.228000", "130939.231000", "130939.234000", "130939.238000", "130939.241000", "130939.244000", "130939.248000", "130939.251000", "130939.255000", "130939.259000", "130939.262000", "131019.196000", "131019.200000", "131019.203000", "131019.206000", "131019.209000", "131019.212000", "131019.216000", "131019.219000", "131019.222000", "131019.225000", "131019.228000", "131019.231000", "131019.234000", "131019.237000", "131019.248000", "131019.252000", "131019.255000", "131019.258000", "131019.261000", "131019.264000", "131059.196000", "131059.198000", "131059.201000", "131059.203000", "131059.206000", "131059.208000", "131059.210000", "131059.213000", "131059.215000", "131059.218000", "131059.220000", "131059.223000", "131059.225000", "131059.227000", "131059.230000", "131059.232000", "131059.235000", "131059.237000", "131059.240000", "131059.242000", "131139.196000", "131139.199000", "131139.202000", "131139.204000", "131139.207000", "131139.209000", "131139.212000", "131139.215000", "131139.217000", "131139.220000", "131139.223000", "131139.225000", "131139.228000", "131139.230000", "131139.233000", "131139.236000", "131139.238000", "131139.241000", "131139.243000", "131139.246000", "131156.786000", "131156.788000", "131156.791000", "131156.793000", "131156.796000", "131156.798000", "131156.801000", "131156.804000", "131156.806000"],
      "InstanceNumber": [1, 2, 3, 4, 5, 6, 7, 8, 9, 10, 11, 12, 13, 14, 15, 16, 17, 18, 19, 20, 21, 22, 23, 24, 25, 26, 27, 28, 29, 30, 31, 32, 33, 34, 35, 36, 37, 38, 39, 40, 41, 42, 43, 44, 45, 46, 47, 48, 49, 50, 51, 52, 53, 54, 55, 56, 57, 58, 59, 60, 61, 62, 63, 64, 65, 66, 67, 68, 69, 70, 71, 72, 73, 74, 75, 76, 77, 78, 79, 80, 81, 82, 83, 84, 85, 86, 87, 88, 89, 90, 91, 92, 93, 94, 95, 96, 97, 98, 99, 100, 101, 102, 103, 104, 105, 106, 107, 108, 109, 110, 111, 112, 113, 114, 115, 116, 117, 118, 119, 120, 121, 122, 123, 124, 125, 126, 127, 128, 129, 130, 131, 132, 133, 134, 135, 136, 137, 138, 139, 140, 141, 142, 143, 144, 145, 146, 147, 148, 149, 150, 151, 152, 153, 154, 155, 156, 157, 158, 159, 160, 161, 162, 163, 164, 165, 166, 167, 168, 169, 170, 171, 172, 173, 174, 175, 176, 177, 178, 179, 180, 181, 182, 183, 184, 185, 186, 187, 188, 189, 190, 191, 192, 193, 194, 195, 196, 197, 198, 199, 200, 201, 202, 203, 204, 205, 206, 207, 208, 209, 210, 211, 212, 213, 214, 215, 216, 217, 218, 219, 220, 221, 222, 223, 224, 225, 226, 227, 228, 229, 230, 231, 232, 233, 234, 235, 236, 237],
      "LargestImagePixelValue": [2376, 2476, 2753, 2115, 2133, 2697, 2352, 2088, 2076, 2294, 2522, 2496, 2275, 2214, 2155, 2248, 2048, 1950, 1922, 2156, 1972, 1954, 2425, 2595, 2390, 2414, 2395, 1852, 2649, 2331, 1978, 2086, 2245, 2416, 2496, 2242, 1808, 2104, 2473, 2149, 2033, 2153, 2258, 2034, 1969, 1951, 2664, 2404, 2419, 2192, 1901, 2583, 2410, 1982, 2022, 1964, 1938, 1932, 2103, 1991, 1937, 2015, 2120, 2365, 2287, 2152, 2255, 2246, 2022, 1944, 2679, 2280, 2206, 1848, 2424, 1967, 2399, 1824, 1875, 2412, 1810, 2735, 2233, 1809, 2538, 2165, 1912, 2618, 2328, 2001, 2019, 2768, 2272, 2186, 1955, 2012, 2716, 2107, 2160, 2209, 1975, 1919, 1878, 2669, 2302, 2110, 2067, 1875, 1865, 2282, 2562, 2260, 2231, 2041, 1943, 1866, 2021, 2536, 2336, 2147, 2025, 1904, 2074, 1798, 2301, 2189, 1799, 1741, 2579, 2103, 1747, 2332, 2395, 2099, 2017, 2447, 2337, 2115, 1725, 2646, 2302, 2043, 1912, 2101, 2376, 2134, 1831, 1823, 1949, 2566, 2252, 1788, 1732, 1974, 2549, 2233, 2000, 1736, 2018, 2574, 2348, 2170, 1828, 2929, 2155, 2190, 1868, 2432, 2024, 1904, 2549, 2201, 1876, 1980, 2716, 2257, 2020, 2058, 1858, 2062, 2473, 2269, 2270, 2201, 2112, 1961, 1874, 1867, 2015, 1948, 2220, 2469, 2282, 2320, 2357, 2227, 2025, 2034, 1846, 2043, 2798, 2161, 1798, 2412, 2049, 2017, 2425, 1960, 2155, 2627, 2338, 2052, 1769, 2286, 2412, 2015, 1887, 2153, 2451, 2131, 1879, 2519, 2263, 2269, 2175, 1879, 1897, 1908, 2329, 2231, 2135, 1933, 1921, 1972, 1999, 2357, 2385],
      "WindowCenter": [679.0, 677.0, 677.0, 676.0, 674.0, 676.0, 675.0, 675.0, 676.0, 677.0, 676.0, 677.0, 676.0, 675.0, 676.0, 677.0, 675.0, 676.0, 675.0, 676.0, 676.0, 676.0, 676.0, 676.0, 675.0, 676.0, 677.0, 674.0, 676.0, 675.0, 676.0, 677.0, 678.0, 676.0, 675.0, 675.0, 674.0, 676.0, 677.0, 676.0, 677.0, 677.0, 677.0, 676.0, 674.0, 675.0, 676.0, 676.0, 677.0, 677.0, 675.0, 678.0, 676.0, 676.0, 676.0, 677.0, 677.0, 676.0, 677.0, 676.0, 676.0, 675.0, 676.0, 676.0, 677.0, 676.0, 677.0, 677.0, 675.0, 675.0, 676.0, 676.0, 676.0, 676.0, 677.0, 675.0, 675.0, 675.0, 676.0, 677.0, 676.0, 676.0, 675.0, 676.0, 678.0, 676.0, 676.0, 677.0, 677.0, 676.0, 675.0, 676.0, 677.0, 678.0, 677.0, 677.0, 676.0, 676.0, 677.0, 677.0, 676.0, 676.0, 675.0, 675.0, 676.0, 676.0, 676.0, 676.0, 675.0, 676.0, 677.0, 676.0, 677.0, 676.0, 676.0, 676.0, 677.0, 677.0, 677.0, 675.0, 676.0, 675.0, 676.0, 675.0, 677.0, 676.0, 674.0, 675.0, 678.0, 676.0, 675.0, 676.0, 676.0, 676.0, 675.0, 676.0, 677.0, 678.0, 675.0, 677.0, 675.0, 676.0, 675.0, 676.0, 676.0, 676.0, 675.0, 676.0, 675.0, 677.0, 677.0, 674.0, 675.0, 676.0, 677.0, 676.0, 676.0, 675.0, 677.0, 677.0, 676.0, 676.0, 675.0, 676.0, 674.0, 677.0, 676.0, 678.0, 677.0, 676.0, 678.0, 677.0, 676.0, 676.0, 677.0, 675.0, 675.0, 675.0, 675.0, 676.0, 677.0, 676.0, 677.0, 677.0, 676.0, 676.0, 676.0, 676.0, 676.0, 675.0, 676.0, 677.0, 676.0, 677.0, 677.0, 676.0, 677.0, 676.0, 676.0, 676.0, 677.0, 675.0, 674.0, 677.0, 677.0, 677.0, 677.0, 675.0, 676.0, 677.0, 677.0, 676.0, 675.0, 677.0, 676.0, 677.0, 675.0, 677.0, 677.0, 675.0, 675.0, 675.0, 676.0, 678.0, 677.0, 676.0, 676.0, 675.0, 677.0, 677.0, 676.0, 676.0, 675.0, 676.0, 677.0, 676.0, 675.0],
      "WindowWidth": [1503.0, 1498.0, 1497.0, 1493.0, 1489.0, 1496.0, 1494.0, 1492.0, 1495.0, 1498.0, 1496.0, 1496.0, 1494.0, 1493.0, 1495.0, 1496.0, 1492.0, 1492.0, 1490.0, 1494.0, 1494.0, 1493.0, 1495.0, 1493.0, 1492.0, 1493.0, 1495.0, 1489.0, 1495.0, 1492.0, 1492.0, 1497.0, 1499.0, 1495.0, 1492.0, 1491.0, 1488.0, 1494.0, 1499.0, 1494.0, 1496.0, 1497.0, 1497.0, 1492.0, 1489.0, 1491.0, 1495.0, 1495.0, 1497.0, 1496.0, 1491.0, 1499.0, 1494.0, 1493.0, 1495.0, 1496.0, 1495.0, 1494.0, 1496.0, 1493.0, 1492.0, 1492.0, 1494.0, 1496.0, 1496.0, 1494.0, 1498.0, 1497.0, 1491.0, 1491.0, 1493.0, 1492.0, 1495.0, 1492.0, 1496.0, 1490.0, 1491.0, 1491.0, 1493.0, 1496.0, 1493.0, 1495.0, 1491.0, 1493.0, 1500.0, 1495.0, 1492.0, 1497.0, 1497.0, 1494.0, 1491.0, 1495.0, 1496.0, 1499.0, 1497.0, 1496.0, 1496.0, 1493.0, 1496.0, 1497.0, 1494.0, 1492.0, 1490.0, 1493.0, 1493.0, 1494.0, 1495.0, 1494.0, 1490.0, 1495.0, 1496.0, 1493.0, 1495.0, 1494.0, 1494.0, 1494.0, 1495.0, 1497.0, 1495.0, 1493.0, 1494.0, 1491.0, 1494.0, 1492.0, 1498.0, 1493.0, 1487.0, 1490.0, 1500.0, 1494.0, 1491.0, 1495.0, 1494.0, 1494.0, 1490.0, 1495.0, 1499.0, 1500.0, 1491.0, 1498.0, 1492.0, 1493.0, 1491.0, 1492.0, 1495.0, 1494.0, 1491.0, 1493.0, 1492.0, 1497.0, 1495.0, 1489.0, 1491.0, 1495.0, 1497.0, 1494.0, 1493.0, 1491.0, 1495.0, 1498.0, 1494.0, 1495.0, 1492.0, 1496.0, 1490.0, 1497.0, 1495.0, 1498.0, 1495.0, 1495.0, 1501.0, 1496.0, 1493.0, 1493.0, 1496.0, 1492.0, 1492.0, 1492.0, 1491.0, 1494.0, 1496.0, 1495.0, 1498.0, 1496.0, 1494.0, 1493.0, 1492.0, 1492.0, 1493.0, 1492.0, 1493.0, 1495.0, 1496.0, 1497.0, 1497.0, 1494.0, 1495.0, 1494.0, 1493.0, 1495.0, 1497.0, 1491.0, 1488.0, 1497.0, 1496.0, 1496.0, 1497.0, 1491.0, 1494.0, 1497.0, 1495.0, 1494.0, 1491.0, 1497.0, 1496.0, 1495.0, 1491.0, 1495.0, 1497.0, 1492.0, 1491.0, 1493.0, 1494.0, 1499.0, 1497.0, 1493.0, 1492.0, 1490.0, 1496.0, 1496.0, 1494.0, 1493.0, 1491.0, 1493.0, 1495.0, 1495.0, 1492.0]
    },
    "slices": {}
  }
}