{
  "AcquisitionMatrixPE": 70,
  "AcquisitionNumber": 1,
  "AcquisitionTime": "12:38:4.842500",
  "BandwidthPerPixelPhaseEncode": 38.873,
  "BaseResolution": 70,
  "BodyPartExamined": "HEAD",
  "ConsistencyInfo": "N4_VE11B_LATEST_20150530",
  "ConversionSoftware": "dcm2niix",
  "ConversionSoftwareVersion": "v1.0.20190410  GCC6.3.0",
  "DerivedVendorReportedEchoSpacing": 0.000489996,
  "DeviceSerialNumber": "66088",
  "DwellTime": 2.9e-06,
  "EchoTime": 0.03,
  "EchoTrainLength": 53,
  "EffectiveEchoSpacing": 0.000367497,
  "FlipAngle": 90,
  "ImageOrientationPatientDICOM": [0.999779, -0.0194944, 0.0078088, 0.0209424, 0.897955, -0.439589],
  "ImageType": [
    "ORIGINAL",
    "PRIMARY",
    "M",
    "ND",
    "NORM",
    "MOSAIC"
],
  "ImagingFrequency": 123.191,
  "InPlanePhaseEncodingDirectionDICOM": "COL",
  "InstitutionAddress": "Street_StreetNo_City_District_IR_ZIP",
  "InstitutionName": "NBML",
  "InstitutionalDepartmentName": "Department",
  "MRAcquisitionType": "2D",
  "MagneticFieldStrength": 3,
  "Manufacturer": "Siemens",
  "ManufacturersModelName": "Prisma",
  "Modality": "MR",
  "ParallelReductionFactorInPlane": 2,
  "PartialFourier": 1,
  "PatientPosition": "HFS",
  "PercentPhaseFOV": 100,
  "PhaseEncodingDirection": "j-",
  "PhaseEncodingSteps": 105,
  "PhaseOversampling": 0.5,
  "PhaseResolution": 1,
  "PixelBandwidth": 2465,
  "ProcedureStepDescription": "NBML_Project_P-96169-Ebrahiminiya",
  "ProtocolName": "ep2d_p2_Task_3.5_measurment:237",
  "PulseSequenceDetails": "%SiemensSeq%_ep2d_pace",
  "ReceiveCoilActiveElements": "HC1-7;NC1",
  "ReceiveCoilName": "HeadNeck_64",
  "ReconMatrixPE": 70,
  "RefLinesPE": 24,
  "RepetitionTime": 2,
  "SAR": 0.0908239,
  "ScanOptions": "FS",
  "ScanningSequence": "EP",
  "SequenceName": "_epfid2d1_70",
  "SequenceVariant": "SK_OSP",
  "SeriesDescription": "ep2d_p2_Task_3.5_measurment:237",
  "SeriesNumber": 6,
  "ShimSetting": [2595, -4469, -3211, 397, 38, 78, -86, 17],
  "SliceThickness": 3.5,
  "SliceTiming": [0.99, 0, 1.0475, 0.0575, 1.105, 0.115, 1.1625, 0.1725, 1.2225, 0.2325, 1.28, 0.29, 1.3375, 0.3475, 1.3975, 0.4075, 1.455, 0.465, 1.5125, 0.5225, 1.57, 0.5825, 1.63, 0.64, 1.6875, 0.6975, 1.745, 0.755, 1.805, 0.815, 1.8625, 0.8725, 1.92, 0.93],
  "SoftwareVersions": "syngo_MR_E11",
  "SpacingBetweenSlices": 3.85,
  "StationName": "AWP66088",
  "TaskName": "categorySelectivity",
  "TotalReadoutTime": 0.0253573,
  "TxRefAmp": 220.126,
  "dcmmeta_affine": [
    [-3.5420758724212646, 0.07419600337743759, -0.005996745079755783, 124.1137924194336],
    [0.06906605511903763, 3.1813254356384277, -1.6926747560501099, -83.88861083984375],
    [0.027665480971336365, 1.5574017763137817, 3.457935333251953, -86.84864807128906],
    [0.0, 0.0, 0.0, 1.0]
],
  "dcmmeta_reorient_transform": [
    [0.0, -1.0, 0.0, 69.0],
    [1.0, 0.0, 0.0, 0.0],
    [0.0, 0.0, 1.0, 0.0],
    [0.0, 0.0, 0.0, 1.0]
],
  "dcmmeta_shape": [70, 70, 34, 237],
  "dcmmeta_slice_dim": 2,
  "dcmmeta_version": 0.6,
  "global": {
    "const": {
      "AccessionNumber": "M.BRZ",
      "AcquisitionMatrix": [70, 0, 0, 70],
      "AngioFlag": "N",
      "BitsAllocated": 16,
      "BitsStored": 12,
      "BodyPartExamined": "HEAD",
      "Columns": 420,
      "EchoNumbers": 1,
      "EchoTime": 30.0,
      "EchoTrainLength": 53,
      "FlipAngle": 90.0,
      "HighBit": 11,
      "ImageOrientationPatient": [0.99977947016852, -0.0194944503631, 0.00780880494023, 0.02094241924877, 0.89795476365129, -0.4395891917597],
      "ImagePositionPatient": [-762.08089490608, -680.26824756797, 288.31591458567],
      "ImageType": [
        "ORIGINAL",
        "PRIMARY",
        "M",
        "ND",
        "NORM",
        "MOSAIC"
],
      "ImagedNucleus": "1H",
      "ImagingFrequency": 123.191136,
      "InPlanePhaseEncodingDirection": "COL",
      "MRAcquisitionType": "2D",
      "MagneticFieldStrength": 3.0,
      "Manufacturer": "SIEMENS",
      "ManufacturerModelName": "Prisma",
      "Modality": "MR",
      "NumberOfAverages": 1.0,
      "NumberOfPhaseEncodingSteps": 105,
      "PercentPhaseFieldOfView": 100.0,
      "PercentSampling": 100.0,
      "PerformedProcedureStepStartTime": "120151.768000",
      "PhotometricInterpretation": "MONOCHROME2",
      "PixelBandwidth": 2465.0,
      "PixelRepresentation": 0,
      "PixelSpacing": [3.542857170105, 3.542857170105],
      "ProtocolName": "ep2d_p2_Task_3.5_measurment:237",
      "RepetitionTime": 2000.0,
      "Rows": 420,
      "SAR": 0.09082385061851,
      "SamplesPerPixel": 1,
      "ScanOptions": "FS",
      "ScanningSequence": "EP",
      "SequenceName": "*epfid2d1_70",
      "SequenceVariant": [
        "SK",
        "OSP"
],
      "SeriesDescription": "ep2d_p2_Task_3.5_measurment:237",
      "SeriesNumber": 6,
      "SeriesTime": "123853.679000",
      "SliceLocation": -41.315621194993,
      "SliceThickness": 3.5,
      "SmallestImagePixelValue": 0,
      "SoftwareVersions": "syngo MR E11",
      "SpacingBetweenSlices": 3.8499999673427,
      "SpecificCharacterSet": "ISO_IR 100",
      "StudyID": "1",
      "StudyTime": "120151.680000",
      "TransmitCoilName": "Body",
      "VariableFlipAngleFlag": "N",
      "WindowCenterWidthExplanation": "Algo1",
      "dBdt": 0.0},
    "slices": {}
  },
  "time": {
    "samples": {
      "AcquisitionNumber": [1, 2, 3, 4, 5, 6, 7, 8, 9, 10, 11, 12, 13, 14, 15, 16, 17, 18, 19, 20, 21, 22, 23, 24, 25, 26, 27, 28, 29, 30, 31, 32, 33, 34, 35, 36, 37, 38, 39, 40, 41, 42, 43, 44, 45, 46, 47, 48, 49, 50, 51, 52, 53, 54, 55, 56, 57, 58, 59, 60, 61, 62, 63, 64, 65, 66, 67, 68, 69, 70, 71, 72, 73, 74, 75, 76, 77, 78, 79, 80, 81, 82, 83, 84, 85, 86, 87, 88, 89, 90, 91, 92, 93, 94, 95, 96, 97, 98, 99, 100, 101, 102, 103, 104, 105, 106, 107, 108, 109, 110, 111, 112, 113, 114, 115, 116, 117, 118, 119, 120, 121, 122, 123, 124, 125, 126, 127, 128, 129, 130, 131, 132, 133, 134, 135, 136, 137, 138, 139, 140, 141, 142, 143, 144, 145, 146, 147, 148, 149, 150, 151, 152, 153, 154, 155, 156, 157, 158, 159, 160, 161, 162, 163, 164, 165, 166, 167, 168, 169, 170, 171, 172, 173, 174, 175, 176, 177, 178, 179, 180, 181, 182, 183, 184, 185, 186, 187, 188, 189, 190, 191, 192, 193, 194, 195, 196, 197, 198, 199, 200, 201, 202, 203, 204, 205, 206, 207, 208, 209, 210, 211, 212, 213, 214, 215, 216, 217, 218, 219, 220, 221, 222, 223, 224, 225, 226, 227, 228, 229, 230, 231, 232, 233, 234, 235, 236, 237],
      "AcquisitionTime": ["123804.842500", "123806.842500", "123808.842500", "123810.842500", "123812.842500", "123814.842500", "123816.842500", "123818.842500", "123820.842500", "123822.842500", "123824.842500", "123826.842500", "123828.842500", "123830.842500", "123832.842500", "123834.842500", "123836.842500", "123838.842500", "123840.842500", "123842.842500", "123844.842500", "123846.842500", "123848.842500", "123850.842500", "123852.842500", "123854.842500", "123856.842500", "123858.842500", "123900.842500", "123902.842500", "123904.842500", "123906.842500", "123908.842500", "123910.842500", "123912.842500", "123914.842500", "123916.842500", "123918.842500", "123920.842500", "123922.842500", "123924.842500", "123926.842500", "123928.842500", "123930.842500", "123932.842500", "123934.842500", "123936.842500", "123938.842500", "123940.842500", "123942.842500", "123944.842500", "123946.842500", "123948.842500", "123950.842500", "123952.842500", "123954.842500", "123956.842500", "123958.842500", "124000.842500", "124002.842500", "124004.842500", "124006.842500", "124008.842500", "124010.842500", "124012.842500", "124014.842500", "124016.842500", "124018.842500", "124020.842500", "124022.842500", "124024.842500", "124026.842500", "124028.842500", "124030.842500", "124032.842500", "124034.842500", "124036.842500", "124038.842500", "124040.842500", "124042.842500", "124044.842500", "124046.842500", "124048.842500", "124050.842500", "124052.842500", "124054.842500", "124056.842500", "124058.842500", "124100.842500", "124102.842500", "124104.842500", "124106.842500", "124108.842500", "124110.842500", "124112.842500", "124114.842500", "124116.842500", "124118.842500", "124120.842500", "124122.842500", "124124.842500", "124126.842500", "124128.842500", "124130.842500", "124132.842500", "124134.842500", "124136.842500", "124138.842500", "124140.842500", "124142.842500", "124144.842500", "124146.842500", "124148.842500", "124150.842500", "124152.842500", "124154.842500", "124156.842500", "124158.842500", "124200.842500", "124202.842500", "124204.842500", "124206.842500", "124208.842500", "124210.842500", "124212.842500", "124214.842500", "124216.842500", "124218.842500", "124220.842500", "124222.842500", "124224.842500", "124226.842500", "124228.842500", "124230.842500", "124232.842500", "124234.842500", "124236.842500", "124238.842500", "124240.842500", "124242.842500", "124244.842500", "124246.842500", "124248.842500", "124250.842500", "124252.842500", "124254.842500", "124256.842500", "124258.842500", "124300.842500", "124302.842500", "124304.842500", "124306.842500", "124308.842500", "124310.842500", "124312.842500", "124314.842500", "124316.842500", "124318.842500", "124320.842500", "124322.842500", "124324.842500", "124326.842500", "124328.842500", "124330.842500", "124332.842500", "124334.842500", "124336.842500", "124338.842500", "124340.842500", "124342.842500", "124344.842500", "124346.842500", "124348.842500", "124350.842500", "124352.842500", "124354.842500", "124356.842500", "124358.842500", "124400.842500", "124402.842500", "124404.842500", "124406.842500", "124408.842500", "124410.842500", "124412.842500", "124414.842500", "124416.842500", "124418.842500", "124420.842500", "124422.842500", "124424.842500", "124426.842500", "124428.842500", "124430.842500", "124432.842500", "124434.842500", "124436.842500", "124438.842500", "124440.842500", "124442.842500", "124444.842500", "124446.842500", "124448.842500", "124450.842500", "124452.842500", "124454.842500", "124456.842500", "124458.842500", "124500.842500", "124502.842500", "124504.842500", "124506.842500", "124508.842500", "124510.842500", "124512.842500", "124514.842500", "124516.842500", "124518.842500", "124520.842500", "124522.842500", "124524.842500", "124526.842500", "124528.842500", "124530.842500", "124532.842500", "124534.842500", "124536.842500", "124538.842500", "124540.842500", "124542.842500", "124544.842500", "124546.842500", "124548.842500", "124550.842500", "124552.842500", "124554.842500", "124556.842500"],
      "ContentTime": ["123853.683000", "123853.687000", "123853.689000", "123853.692000", "123853.694000", "123853.697000", "123853.699000", "123853.702000", "123853.705000", "123853.707000", "123853.710000", "123853.712000", "123853.715000", "123853.717000", "123853.720000", "123853.722000", "123853.725000", "123853.728000", "123853.730000", "123853.733000", "123853.735000", "123853.738000", "123853.748000", "123853.751000", "123933.678000", "123933.681000", "123933.684000", "123933.686000", "123933.689000", "123933.691000", "123933.694000", "123933.696000", "123933.706000", "123933.709000", "123933.711000", "123933.714000", "123933.717000", "123933.719000", "123933.722000", "123933.724000", "123933.727000", "123933.730000", "123933.732000", "123933.735000", "124013.677000", "124013.681000", "124013.684000", "124013.687000", "124013.690000", "124013.693000", "124013.695000", "124013.698000", "124013.701000", "124013.704000", "124013.707000", "124013.710000", "124013.713000", "124013.716000", "124013.719000", "124013.721000", "124013.724000", "124013.727000", "124013.730000", "124013.733000", "124053.677000", "124053.679000", "124053.682000", "124053.684000", "124053.687000", "124053.689000", "124053.691000", "124053.694000", "124053.696000", "124053.699000", "124053.701000", "124053.703000", "124053.706000", "124053.708000", "124053.723000", "124053.725000", "124053.728000", "124053.730000", "124053.733000", "124053.735000", "124133.679000", "124133.682000", "124133.684000", "124133.687000", "124133.697000", "124133.700000", "124133.702000", "124133.704000", "124133.707000", "124133.709000", "124133.712000", "124133.714000", "124133.716000", "124133.719000", "124133.721000", "124133.724000", "124133.726000", "124133.729000", "124133.731000", "124133.733000", "124153.678000", "124153.681000", "124153.683000", "124153.686000", "124153.688000", "124153.691000", "124153.693000", "124153.696000", "124153.699000", "124153.701000", "124233.677000", "124233.679000", "124233.682000", "124233.684000", "124233.687000", "124233.689000", "124233.691000", "124233.694000", "124233.696000", "124233.699000", "124233.701000", "124233.703000", "124233.706000", "124233.708000", "124233.711000", "124233.713000", "124233.715000", "124233.718000", "124233.720000", "124233.723000", "124313.677000", "124313.681000", "124313.684000", "124313.687000", "124313.690000", "124313.693000", "124313.697000", "124313.700000", "124313.703000", "124313.706000", "124313.709000", "124313.712000", "124313.715000", "124313.719000", "124313.722000", "124313.725000", "124313.728000", "124313.731000", "124313.734000", "124313.738000", "124353.677000", "124353.680000", "124353.683000", "124353.685000", "124353.688000", "124353.690000", "124353.693000", "124353.695000", "124353.697000", "124353.700000", "124353.702000", "124353.705000", "124353.707000", "124353.710000", "124353.712000", "124353.714000", "124353.717000", "124353.719000", "124353.722000", "124353.724000", "124433.677000", "124433.679000", "124433.682000", "124433.684000", "124433.687000", "124433.689000", "124433.691000", "124433.694000", "124433.696000", "124433.699000", "124433.701000", "124433.704000", "124433.706000", "124433.708000", "124433.711000", "124433.713000", "124433.716000", "124433.718000", "124433.720000", "124433.723000", "124513.677000", "124513.680000", "124513.684000", "124513.687000", "124513.690000", "124513.693000", "124513.696000", "124513.699000", "124513.702000", "124513.705000", "124513.708000", "124513.711000", "124513.714000", "124513.717000", "124513.720000", "124513.723000", "124513.726000", "124513.737000", "124513.740000", "124513.743000", "124553.677000", "124553.680000", "124553.682000", "124553.685000", "124553.687000", "124553.689000", "124553.692000", "124553.694000", "124553.697000", "124553.699000", "124553.701000", "124553.704000", "124553.706000", "124553.709000", "124553.711000", "124553.713000", "124553.716000", "124553.718000", "124553.721000", "124553.723000", "124558.206000", "124558.210000", "124558.213000"],
      "InstanceCreationTime": ["123853.683000", "123853.687000", "123853.689000", "123853.692000", "123853.694000", "123853.697000", "123853.699000", "123853.702000", "123853.705000", "123853.707000", "123853.710000", "123853.712000", "123853.715000", "123853.717000", "123853.720000", "123853.722000", "123853.725000", "123853.728000", "123853.730000", "123853.733000", "123853.735000", "123853.738000", "123853.748000", "123853.751000", "123933.678000", "123933.681000", "123933.684000", "123933.686000", "123933.689000", "123933.691000", "123933.694000", "123933.696000", "123933.706000", "123933.709000", "123933.711000", "123933.714000", "123933.717000", "123933.719000", "123933.722000", "123933.724000", "123933.727000", "123933.730000", "123933.732000", "123933.735000", "124013.677000", "124013.681000", "124013.684000", "124013.687000", "124013.690000", "124013.693000", "124013.695000", "124013.698000", "124013.701000", "124013.704000", "124013.707000", "124013.710000", "124013.713000", "124013.716000", "124013.719000", "124013.721000", "124013.724000", "124013.727000", "124013.730000", "124013.733000", "124053.677000", "124053.679000", "124053.682000", "124053.684000", "124053.687000", "124053.689000", "124053.691000", "124053.694000", "124053.696000", "124053.699000", "124053.701000", "124053.703000", "124053.706000", "124053.708000", "124053.723000", "124053.725000", "124053.728000", "124053.730000", "124053.733000", "124053.735000", "124133.679000", "124133.682000", "124133.684000", "124133.687000", "124133.697000", "124133.700000", "124133.702000", "124133.704000", "124133.707000", "124133.709000", "124133.712000", "124133.714000", "124133.716000", "124133.719000", "124133.721000", "124133.724000", "124133.726000", "124133.729000", "124133.731000", "124133.733000", "124153.678000", "124153.681000", "124153.683000", "124153.686000", "124153.688000", "124153.691000", "124153.693000", "124153.696000", "124153.699000", "124153.701000", "124233.677000", "124233.679000", "124233.682000", "124233.684000", "124233.687000", "124233.689000", "124233.691000", "124233.694000", "124233.696000", "124233.699000", "124233.701000", "124233.703000", "124233.706000", "124233.708000", "124233.711000", "124233.713000", "124233.715000", "124233.718000", "124233.720000", "124233.723000", "124313.677000", "124313.681000", "124313.684000", "124313.687000", "124313.690000", "124313.693000", "124313.697000", "124313.700000", "124313.703000", "124313.706000", "124313.709000", "124313.712000", "124313.715000", "124313.719000", "124313.722000", "124313.725000", "124313.728000", "124313.731000", "124313.734000", "124313.738000", "124353.677000", "124353.680000", "124353.683000", "124353.685000", "124353.688000", "124353.690000", "124353.693000", "124353.695000", "124353.697000", "124353.700000", "124353.702000", "124353.705000", "124353.707000", "124353.710000", "124353.712000", "124353.714000", "124353.717000", "124353.719000", "124353.722000", "124353.724000", "124433.677000", "124433.679000", "124433.682000", "124433.684000", "124433.687000", "124433.689000", "124433.691000", "124433.694000", "124433.696000", "124433.699000", "124433.701000", "124433.704000", "124433.706000", "124433.708000", "124433.711000", "124433.713000", "124433.716000", "124433.718000", "124433.720000", "124433.723000", "124513.677000", "124513.680000", "124513.684000", "124513.687000", "124513.690000", "124513.693000", "124513.696000", "124513.699000", "124513.702000", "124513.705000", "124513.708000", "124513.711000", "124513.714000", "124513.717000", "124513.720000", "124513.723000", "124513.726000", "124513.737000", "124513.740000", "124513.743000", "124553.677000", "124553.680000", "124553.682000", "124553.685000", "124553.687000", "124553.689000", "124553.692000", "124553.694000", "124553.697000", "124553.699000", "124553.701000", "124553.704000", "124553.706000", "124553.709000", "124553.711000", "124553.713000", "124553.716000", "124553.718000", "124553.721000", "124553.723000", "124558.206000", "124558.210000", "124558.213000"],
      "InstanceNumber": [1, 2, 3, 4, 5, 6, 7, 8, 9, 10, 11, 12, 13, 14, 15, 16, 17, 18, 19, 20, 21, 22, 23, 24, 25, 26, 27, 28, 29, 30, 31, 32, 33, 34, 35, 36, 37, 38, 39, 40, 41, 42, 43, 44, 45, 46, 47, 48, 49, 50, 51, 52, 53, 54, 55, 56, 57, 58, 59, 60, 61, 62, 63, 64, 65, 66, 67, 68, 69, 70, 71, 72, 73, 74, 75, 76, 77, 78, 79, 80, 81, 82, 83, 84, 85, 86, 87, 88, 89, 90, 91, 92, 93, 94, 95, 96, 97, 98, 99, 100, 101, 102, 103, 104, 105, 106, 107, 108, 109, 110, 111, 112, 113, 114, 115, 116, 117, 118, 119, 120, 121, 122, 123, 124, 125, 126, 127, 128, 129, 130, 131, 132, 133, 134, 135, 136, 137, 138, 139, 140, 141, 142, 143, 144, 145, 146, 147, 148, 149, 150, 151, 152, 153, 154, 155, 156, 157, 158, 159, 160, 161, 162, 163, 164, 165, 166, 167, 168, 169, 170, 171, 172, 173, 174, 175, 176, 177, 178, 179, 180, 181, 182, 183, 184, 185, 186, 187, 188, 189, 190, 191, 192, 193, 194, 195, 196, 197, 198, 199, 200, 201, 202, 203, 204, 205, 206, 207, 208, 209, 210, 211, 212, 213, 214, 215, 216, 217, 218, 219, 220, 221, 222, 223, 224, 225, 226, 227, 228, 229, 230, 231, 232, 233, 234, 235, 236, 237],
      "LargestImagePixelValue": [2140, 2658, 2369, 2289, 2058, 2592, 2186, 1844, 2558, 2203, 2064, 2434, 1946, 2610, 2200, 1933, 2653, 2018, 2624, 2187, 2025, 2392, 2055, 2207, 2172, 2768, 2248, 1962, 2560, 2333, 2098, 2413, 2085, 2801, 2334, 2265, 1883, 2530, 2252, 1962, 2653, 2106, 2291, 2354, 1990, 2536, 1954, 2625, 2213, 1887, 2594, 2274, 1966, 2580, 2418, 2211, 1975, 2662, 2229, 1944, 2550, 1956, 2731, 2245, 2002, 2599, 1964, 2411, 2359, 1884, 2662, 2331, 1945, 1996, 2757, 2316, 2169, 2028, 2792, 2364, 2321, 2113, 2018, 2002, 2700, 2415, 2380, 2319, 1941, 2685, 2324, 2311, 1901, 2212, 2607, 2302, 2362, 2039, 2703, 2150, 1777, 2602, 2187, 1837, 2654, 2235, 1873, 2646, 2182, 1816, 2643, 2242, 1887, 2562, 2242, 1908, 2606, 1837, 2468, 2200, 1875, 2434, 1986, 2630, 2155, 1945, 2574, 2084, 2021, 2673, 2130, 1920, 2524, 2022, 2588, 2255, 1915, 2639, 2335, 1975, 2678, 2355, 1995, 2037, 2641, 2403, 2405, 2437, 2129, 2049, 2434, 2446, 2385, 2203, 1894, 2496, 2562, 1881, 1897, 2794, 2215, 1810, 2013, 2254, 2386, 2146, 2006, 2754, 2355, 2094, 1958, 2624, 2230, 1968, 2607, 2100, 1905, 2495, 2135, 2118, 2142, 2411, 1971, 2366, 2369, 1959, 2686, 2157, 2375, 2315, 1837, 2596, 2112, 2530, 1950, 2058, 2261, 2910, 2272, 2021, 2611, 2168, 1961, 2498, 2037, 2669, 2213, 1855, 2517, 1933, 2377, 2454, 1999, 1909, 2677, 2239, 1989, 1953, 2814, 2452, 2282, 1947, 2441, 2525, 2345, 2082, 2004, 2674, 2302, 1847, 2631, 2380, 2353, 2161, 1967, 2043, 2600],
      "WindowCenter": [678.0, 678.0, 676.0, 675.0, 676.0, 676.0, 675.0, 676.0, 677.0, 676.0, 675.0, 676.0, 676.0, 677.0, 677.0, 675.0, 677.0, 675.0, 676.0, 676.0, 675.0, 677.0, 678.0, 677.0, 676.0, 677.0, 677.0, 676.0, 677.0, 677.0, 677.0, 679.0, 677.0, 677.0, 676.0, 677.0, 676.0, 677.0, 677.0, 676.0, 677.0, 676.0, 677.0, 677.0, 676.0, 677.0, 676.0, 676.0, 677.0, 674.0, 677.0, 677.0, 676.0, 677.0, 677.0, 677.0, 676.0, 677.0, 676.0, 675.0, 677.0, 676.0, 678.0, 677.0, 676.0, 676.0, 676.0, 677.0, 677.0, 676.0, 676.0, 677.0, 677.0, 676.0, 677.0, 675.0, 676.0, 676.0, 677.0, 675.0, 676.0, 676.0, 676.0, 677.0, 678.0, 677.0, 676.0, 676.0, 676.0, 676.0, 676.0, 678.0, 678.0, 678.0, 678.0, 677.0, 677.0, 674.0, 676.0, 675.0, 675.0, 678.0, 676.0, 675.0, 677.0, 677.0, 675.0, 677.0, 677.0, 677.0, 679.0, 677.0, 676.0, 676.0, 677.0, 675.0, 677.0, 674.0, 676.0, 676.0, 677.0, 677.0, 676.0, 677.0, 675.0, 675.0, 677.0, 676.0, 676.0, 678.0, 675.0, 675.0, 676.0, 675.0, 677.0, 677.0, 676.0, 677.0, 677.0, 676.0, 677.0, 677.0, 676.0, 677.0, 678.0, 677.0, 678.0, 677.0, 674.0, 675.0, 676.0, 677.0, 677.0, 676.0, 676.0, 677.0, 678.0, 676.0, 677.0, 676.0, 675.0, 675.0, 676.0, 677.0, 677.0, 676.0, 676.0, 677.0, 676.0, 674.0, 675.0, 678.0, 676.0, 674.0, 675.0, 675.0, 675.0, 677.0, 676.0, 677.0, 677.0, 677.0, 675.0, 677.0, 677.0, 677.0, 677.0, 676.0, 676.0, 677.0, 675.0, 675.0, 676.0, 677.0, 675.0, 678.0, 680.0, 678.0, 675.0, 675.0, 676.0, 677.0, 676.0, 676.0, 676.0, 677.0, 675.0, 675.0, 677.0, 676.0, 676.0, 677.0, 676.0, 676.0, 678.0, 677.0, 676.0, 677.0, 678.0, 677.0, 676.0, 675.0, 675.0, 676.0, 677.0, 676.0, 675.0, 676.0, 676.0, 675.0, 678.0, 677.0, 676.0, 676.0, 674.0, 674.0, 676.0],
      "WindowWidth": [1500.0, 1500.0, 1496.0, 1494.0, 1493.0, 1495.0, 1493.0, 1496.0, 1498.0, 1495.0, 1492.0, 1496.0, 1494.0, 1499.0, 1497.0, 1491.0, 1497.0, 1493.0, 1496.0, 1495.0, 1492.0, 1498.0, 1499.0, 1500.0, 1496.0, 1499.0, 1497.0, 1494.0, 1499.0, 1497.0, 1499.0, 1503.0, 1498.0, 1498.0, 1496.0, 1498.0, 1495.0, 1498.0, 1497.0, 1494.0, 1499.0, 1495.0, 1497.0, 1499.0, 1495.0, 1498.0, 1494.0, 1497.0, 1497.0, 1490.0, 1497.0, 1497.0, 1494.0, 1497.0, 1498.0, 1496.0, 1494.0, 1498.0, 1495.0, 1492.0, 1497.0, 1495.0, 1501.0, 1498.0, 1495.0, 1495.0, 1494.0, 1499.0, 1499.0, 1494.0, 1498.0, 1498.0, 1496.0, 1496.0, 1499.0, 1494.0, 1494.0, 1493.0, 1497.0, 1492.0, 1494.0, 1494.0, 1495.0, 1497.0, 1501.0, 1498.0, 1496.0, 1496.0, 1493.0, 1497.0, 1495.0, 1500.0, 1499.0, 1500.0, 1500.0, 1496.0, 1497.0, 1489.0, 1493.0, 1492.0, 1491.0, 1500.0, 1495.0, 1491.0, 1498.0, 1496.0, 1492.0, 1496.0, 1496.0, 1496.0, 1503.0, 1497.0, 1493.0, 1497.0, 1497.0, 1492.0, 1498.0, 1489.0, 1493.0, 1496.0, 1496.0, 1497.0, 1493.0, 1497.0, 1493.0, 1493.0, 1498.0, 1495.0, 1495.0, 1499.0, 1492.0, 1492.0, 1494.0, 1492.0, 1497.0, 1496.0, 1493.0, 1499.0, 1496.0, 1494.0, 1498.0, 1498.0, 1495.0, 1497.0, 1500.0, 1497.0, 1499.0, 1497.0, 1490.0, 1491.0, 1495.0, 1496.0, 1497.0, 1496.0, 1495.0, 1498.0, 1499.0, 1497.0, 1497.0, 1494.0, 1492.0, 1489.0, 1494.0, 1499.0, 1498.0, 1495.0, 1494.0, 1497.0, 1493.0, 1488.0, 1491.0, 1500.0, 1495.0, 1490.0, 1493.0, 1492.0, 1492.0, 1498.0, 1494.0, 1498.0, 1498.0, 1497.0, 1491.0, 1497.0, 1497.0, 1496.0, 1497.0, 1494.0, 1495.0, 1496.0, 1491.0, 1493.0, 1493.0, 1497.0, 1492.0, 1500.0, 1506.0, 1500.0, 1492.0, 1492.0, 1496.0, 1496.0, 1493.0, 1494.0, 1493.0, 1498.0, 1493.0, 1491.0, 1498.0, 1494.0, 1496.0, 1498.0, 1494.0, 1494.0, 1500.0, 1498.0, 1495.0, 1496.0, 1499.0, 1496.0, 1494.0, 1491.0, 1492.0, 1494.0, 1496.0, 1492.0, 1490.0, 1496.0, 1495.0, 1490.0, 1498.0, 1495.0, 1495.0, 1493.0, 1489.0, 1489.0, 1494.0]
    },
    "slices": {}
  }
}