{
  "AcquisitionMatrixPE": 70,
  "AcquisitionNumber": 1,
  "AcquisitionTime": "13:12:21.967500",
  "BandwidthPerPixelPhaseEncode": 38.873,
  "BaseResolution": 70,
  "BodyPartExamined": "HEAD",
  "ConsistencyInfo": "N4_VE11B_LATEST_20150530",
  "ConversionSoftware": "dcm2niix",
  "ConversionSoftwareVersion": "v1.0.20190410  GCC6.3.0",
  "DerivedVendorReportedEchoSpacing": 0.000489996,
  "DeviceSerialNumber": "66088",
  "DwellTime": 2.9e-06,
  "EchoTime": 0.03,
  "EchoTrainLength": 53,
  "EffectiveEchoSpacing": 0.000367497,
  "FlipAngle": 90,
  "ImageOrientationPatientDICOM": [0.999779, -0.0194944, 0.0078088, 0.0209424, 0.897955, -0.439589],
  "ImageType": [
    "ORIGINAL",
    "PRIMARY",
    "M",
    "ND",
    "NORM",
    "MOSAIC"
],
  "ImagingFrequency": 123.191,
  "InPlanePhaseEncodingDirectionDICOM": "COL",
  "InstitutionAddress": "Street_StreetNo_City_District_IR_ZIP",
  "InstitutionName": "NBML",
  "InstitutionalDepartmentName": "Department",
  "MRAcquisitionType": "2D",
  "MagneticFieldStrength": 3,
  "Manufacturer": "Siemens",
  "ManufacturersModelName": "Prisma",
  "Modality": "MR",
  "ParallelReductionFactorInPlane": 2,
  "PartialFourier": 1,
  "PatientPosition": "HFS",
  "PercentPhaseFOV": 100,
  "PhaseEncodingDirection": "j-",
  "PhaseEncodingSteps": 105,
  "PhaseOversampling": 0.5,
  "PhaseResolution": 1,
  "PixelBandwidth": 2465,
  "ProcedureStepDescription": "NBML_Project_P-96169-Ebrahiminiya",
  "ProtocolName": "ep2d_p2_Task_3.5_measurment:237",
  "PulseSequenceDetails": "%SiemensSeq%_ep2d_pace",
  "ReceiveCoilActiveElements": "HC1-7;NC1",
  "ReceiveCoilName": "HeadNeck_64",
  "ReconMatrixPE": 70,
  "RefLinesPE": 24,
  "RepetitionTime": 2,
  "SAR": 0.0908239,
  "ScanOptions": "FS",
  "ScanningSequence": "EP",
  "SequenceName": "_epfid2d1_70",
  "SequenceVariant": "SK_OSP",
  "SeriesDescription": "ep2d_p2_Task_3.5_measurment:237",
  "SeriesNumber": 10,
  "ShimSetting": [2595, -4469, -3211, 397, 38, 78, -86, 17],
  "SliceThickness": 3.5,
  "SliceTiming": [0.99, 0, 1.0475, 0.0575, 1.105, 0.115, 1.165, 0.175, 1.2225, 0.2325, 1.28, 0.29, 1.34, 0.35, 1.3975, 0.4075, 1.455, 0.465, 1.5125, 0.5225, 1.5725, 0.5825, 1.63, 0.64, 1.6875, 0.6975, 1.7475, 0.7575, 1.805, 0.815, 1.8625, 0.8725, 1.92, 0.9325],
  "SoftwareVersions": "syngo_MR_E11",
  "SpacingBetweenSlices": 3.85,
  "StationName": "AWP66088",
  "TaskName": "categorySelectivity",
  "TotalReadoutTime": 0.0253573,
  "TxRefAmp": 220.126,
  "dcmmeta_affine": [
    [-3.5420758724212646, 0.07419600337743759, -0.005996745079755783, 124.1137924194336],
    [0.06906605511903763, 3.1813254356384277, -1.6926747560501099, -83.88861083984375],
    [0.027665480971336365, 1.5574017763137817, 3.457935333251953, -86.84864807128906],
    [0.0, 0.0, 0.0, 1.0]
],
  "dcmmeta_reorient_transform": [
    [0.0, -1.0, 0.0, 69.0],
    [1.0, 0.0, 0.0, 0.0],
    [0.0, 0.0, 1.0, 0.0],
    [0.0, 0.0, 0.0, 1.0]
],
  "dcmmeta_shape": [70, 70, 34, 237],
  "dcmmeta_slice_dim": 2,
  "dcmmeta_version": 0.6,
  "global": {
    "const": {
      "AccessionNumber": "M.BRZ",
      "AcquisitionMatrix": [70, 0, 0, 70],
      "AngioFlag": "N",
      "BitsAllocated": 16,
      "BitsStored": 12,
      "BodyPartExamined": "HEAD",
      "Columns": 420,
      "EchoNumbers": 1,
      "EchoTime": 30.0,
      "EchoTrainLength": 53,
      "FlipAngle": 90.0,
      "HighBit": 11,
      "ImageOrientationPatient": [0.99977947016852, -0.0194944503631, 0.00780880494023, 0.02094241924877, 0.89795476365129, -0.4395891917597],
      "ImagePositionPatient": [-762.08089490608, -680.26824756797, 288.31591458567],
      "ImageType": [
        "ORIGINAL",
        "PRIMARY",
        "M",
        "ND",
        "NORM",
        "MOSAIC"
],
      "ImagedNucleus": "1H",
      "ImagingFrequency": 123.191136,
      "InPlanePhaseEncodingDirection": "COL",
      "MRAcquisitionType": "2D",
      "MagneticFieldStrength": 3.0,
      "Manufacturer": "SIEMENS",
      "ManufacturerModelName": "Prisma",
      "Modality": "MR",
      "NumberOfAverages": 1.0,
      "NumberOfPhaseEncodingSteps": 105,
      "PercentPhaseFieldOfView": 100.0,
      "PercentSampling": 100.0,
      "PerformedProcedureStepStartTime": "120151.768000",
      "PhotometricInterpretation": "MONOCHROME2",
      "PixelBandwidth": 2465.0,
      "PixelRepresentation": 0,
      "PixelSpacing": [3.542857170105, 3.542857170105],
      "ProtocolName": "ep2d_p2_Task_3.5_measurment:237",
      "RepetitionTime": 2000.0,
      "Rows": 420,
      "SAR": 0.09082385061851,
      "SamplesPerPixel": 1,
      "ScanOptions": "FS",
      "ScanningSequence": "EP",
      "SequenceName": "*epfid2d1_70",
      "SequenceVariant": [
        "SK",
        "OSP"
],
      "SeriesDescription": "ep2d_p2_Task_3.5_measurment:237",
      "SeriesNumber": 10,
      "SeriesTime": "131307.238000",
      "SliceLocation": -41.315621194993,
      "SliceThickness": 3.5,
      "SmallestImagePixelValue": 0,
      "SoftwareVersions": "syngo MR E11",
      "SpacingBetweenSlices": 3.8499999673427,
      "SpecificCharacterSet": "ISO_IR 100",
      "StudyID": "1",
      "StudyTime": "120151.680000",
      "TransmitCoilName": "Body",
      "VariableFlipAngleFlag": "N",
      "WindowCenterWidthExplanation": "Algo1",
      "dBdt": 0.0},
    "slices": {}
  },
  "time": {
    "samples": {
      "AcquisitionNumber": [1, 2, 3, 4, 5, 6, 7, 8, 9, 10, 11, 12, 13, 14, 15, 16, 17, 18, 19, 20, 21, 22, 23, 24, 25, 26, 27, 28, 29, 30, 31, 32, 33, 34, 35, 36, 37, 38, 39, 40, 41, 42, 43, 44, 45, 46, 47, 48, 49, 50, 51, 52, 53, 54, 55, 56, 57, 58, 59, 60, 61, 62, 63, 64, 65, 66, 67, 68, 69, 70, 71, 72, 73, 74, 75, 76, 77, 78, 79, 80, 81, 82, 83, 84, 85, 86, 87, 88, 89, 90, 91, 92, 93, 94, 95, 96, 97, 98, 99, 100, 101, 102, 103, 104, 105, 106, 107, 108, 109, 110, 111, 112, 113, 114, 115, 116, 117, 118, 119, 120, 121, 122, 123, 124, 125, 126, 127, 128, 129, 130, 131, 132, 133, 134, 135, 136, 137, 138, 139, 140, 141, 142, 143, 144, 145, 146, 147, 148, 149, 150, 151, 152, 153, 154, 155, 156, 157, 158, 159, 160, 161, 162, 163, 164, 165, 166, 167, 168, 169, 170, 171, 172, 173, 174, 175, 176, 177, 178, 179, 180, 181, 182, 183, 184, 185, 186, 187, 188, 189, 190, 191, 192, 193, 194, 195, 196, 197, 198, 199, 200, 201, 202, 203, 204, 205, 206, 207, 208, 209, 210, 211, 212, 213, 214, 215, 216, 217, 218, 219, 220, 221, 222, 223, 224, 225, 226, 227, 228, 229, 230, 231, 232, 233, 234, 235, 236, 237],
      "AcquisitionTime": ["131221.967500", "131223.967500", "131225.967500", "131227.967500", "131229.967500", "131231.967500", "131233.967500", "131235.967500", "131237.967500", "131239.967500", "131241.967500", "131243.967500", "131245.967500", "131247.967500", "131249.967500", "131251.967500", "131253.967500", "131255.967500", "131257.967500", "131259.967500", "131301.967500", "131303.967500", "131305.967500", "131307.967500", "131309.967500", "131311.967500", "131313.967500", "131315.967500", "131317.967500", "131319.967500", "131321.967500", "131323.967500", "131325.967500", "131327.967500", "131329.967500", "131331.967500", "131333.967500", "131335.967500", "131337.967500", "131339.967500", "131341.967500", "131343.967500", "131345.967500", "131347.967500", "131349.967500", "131351.967500", "131353.967500", "131355.967500", "131357.967500", "131359.967500", "131401.967500", "131403.967500", "131405.967500", "131407.967500", "131409.967500", "131411.967500", "131413.967500", "131415.967500", "131417.967500", "131419.967500", "131421.967500", "131423.967500", "131425.967500", "131427.967500", "131429.967500", "131431.967500", "131433.967500", "131435.967500", "131437.967500", "131439.967500", "131441.967500", "131443.967500", "131445.967500", "131447.967500", "131449.967500", "131451.967500", "131453.967500", "131455.967500", "131457.967500", "131459.967500", "131501.967500", "131503.967500", "131505.967500", "131507.967500", "131509.967500", "131511.967500", "131513.967500", "131515.967500", "131517.967500", "131519.967500", "131521.967500", "131523.967500", "131525.967500", "131527.967500", "131529.967500", "131531.967500", "131533.967500", "131535.967500", "131537.967500", "131539.967500", "131541.967500", "131543.967500", "131545.967500", "131547.967500", "131549.967500", "131551.967500", "131553.967500", "131555.967500", "131557.967500", "131559.967500", "131601.967500", "131603.967500", "131605.967500", "131607.967500", "131609.967500", "131611.967500", "131613.967500", "131615.967500", "131617.967500", "131619.967500", "131621.967500", "131623.967500", "131625.967500", "131627.967500", "131629.967500", "131631.967500", "131633.967500", "131635.967500", "131637.967500", "131639.967500", "131641.967500", "131643.967500", "131645.967500", "131647.967500", "131649.967500", "131651.967500", "131653.967500", "131655.967500", "131657.967500", "131659.967500", "131701.967500", "131703.967500", "131705.967500", "131707.967500", "131709.967500", "131711.967500", "131713.967500", "131715.967500", "131717.967500", "131719.967500", "131721.967500", "131723.967500", "131725.967500", "131727.967500", "131729.967500", "131731.967500", "131733.967500", "131735.967500", "131737.967500", "131739.967500", "131741.967500", "131743.967500", "131745.967500", "131747.967500", "131749.967500", "131751.967500", "131753.967500", "131755.967500", "131757.967500", "131759.967500", "131801.967500", "131803.967500", "131805.967500", "131807.967500", "131809.967500", "131811.967500", "131813.967500", "131815.967500", "131817.967500", "131819.967500", "131821.967500", "131823.967500", "131825.967500", "131827.967500", "131829.967500", "131831.967500", "131833.967500", "131835.967500", "131837.967500", "131839.967500", "131841.967500", "131843.967500", "131845.967500", "131847.967500", "131849.967500", "131851.967500", "131853.967500", "131855.967500", "131857.967500", "131859.967500", "131901.967500", "131903.967500", "131905.967500", "131907.967500", "131909.967500", "131911.967500", "131913.967500", "131915.967500", "131917.967500", "131919.967500", "131921.967500", "131923.967500", "131925.967500", "131927.967500", "131929.967500", "131931.967500", "131933.967500", "131935.967500", "131937.967500", "131939.967500", "131941.967500", "131943.967500", "131945.967500", "131947.967500", "131949.967500", "131951.967500", "131953.967500", "131955.967500", "131957.967500", "131959.967500", "132001.967500", "132003.967500", "132005.967500", "132007.967500", "132009.967500", "132011.967500", "132013.967500"],
      "ContentTime": ["131307.241000", "131307.245000", "131307.247000", "131307.249000", "131307.252000", "131307.254000", "131307.257000", "131307.260000", "131307.262000", "131307.265000", "131307.267000", "131307.270000", "131307.273000", "131307.275000", "131307.278000", "131307.280000", "131307.283000", "131307.285000", "131307.288000", "131307.291000", "131307.293000", "131307.296000", "131307.298000", "131347.237000", "131347.240000", "131347.243000", "131347.245000", "131347.247000", "131347.250000", "131347.252000", "131347.255000", "131347.257000", "131347.260000", "131347.262000", "131347.264000", "131347.267000", "131347.269000", "131347.272000", "131347.279000", "131347.294000", "131347.297000", "131347.299000", "131347.302000", "131427.237000", "131427.239000", "131427.249000", "131427.251000", "131427.254000", "131427.257000", "131427.259000", "131427.262000", "131427.264000", "131427.267000", "131427.269000", "131427.272000", "131427.275000", "131427.277000", "131427.280000", "131427.282000", "131427.285000", "131427.287000", "131427.290000", "131427.292000", "131507.236000", "131507.239000", "131507.242000", "131507.244000", "131507.247000", "131507.250000", "131507.252000", "131507.255000", "131507.258000", "131507.260000", "131507.263000", "131507.266000", "131507.268000", "131507.271000", "131507.273000", "131507.276000", "131507.279000", "131507.281000", "131507.284000", "131507.286000", "131547.237000", "131547.240000", "131547.242000", "131547.245000", "131547.248000", "131547.250000", "131547.253000", "131547.255000", "131547.258000", "131547.260000", "131547.270000", "131547.272000", "131547.275000", "131547.278000", "131547.280000", "131547.283000", "131547.286000", "131547.288000", "131547.291000", "131547.293000", "131627.236000", "131627.239000", "131627.242000", "131627.244000", "131627.247000", "131627.249000", "131627.252000", "131627.254000", "131627.256000", "131627.259000", "131627.261000", "131627.264000", "131627.266000", "131627.269000", "131627.272000", "131627.274000", "131627.277000", "131627.280000", "131627.282000", "131627.285000", "131707.237000", "131707.240000", "131707.242000", "131707.245000", "131707.247000", "131707.250000", "131707.252000", "131707.255000", "131707.257000", "131707.260000", "131707.262000", "131707.265000", "131707.268000", "131707.270000", "131707.273000", "131707.276000", "131707.278000", "131707.281000", "131707.283000", "131707.286000", "131747.238000", "131747.241000", "131747.244000", "131747.246000", "131747.249000", "131747.251000", "131747.254000", "131747.256000", "131747.259000", "131747.262000", "131747.264000", "131747.267000", "131747.269000", "131747.272000", "131747.275000", "131747.277000", "131747.280000", "131747.282000", "131747.285000", "131747.287000", "131827.237000", "131827.239000", "131827.242000", "131827.244000", "131827.247000", "131827.249000", "131827.252000", "131827.254000", "131827.257000", "131827.259000", "131827.261000", "131827.264000", "131827.266000", "131827.269000", "131827.271000", "131827.274000", "131827.276000", "131827.279000", "131827.281000", "131827.284000", "131907.237000", "131907.240000", "131907.242000", "131907.245000", "131907.248000", "131907.250000", "131907.253000", "131907.255000", "131907.258000", "131907.261000", "131907.263000", "131907.266000", "131907.269000", "131907.271000", "131907.274000", "131907.286000", "131907.289000", "131907.291000", "131907.294000", "131907.296000", "131947.236000", "131947.239000", "131947.242000", "131947.244000", "131947.247000", "131947.249000", "131947.252000", "131947.254000", "131947.257000", "131947.259000", "131947.262000", "131947.264000", "131947.267000", "131947.269000", "131947.271000", "131947.274000", "131947.277000", "131947.279000", "131947.281000", "131947.284000", "132015.147000", "132015.151000", "132015.154000", "132015.156000", "132015.159000", "132015.162000", "132015.166000", "132015.171000", "132015.175000", "132015.178000", "132015.181000", "132015.184000", "132015.187000", "132015.190000"],
      "InstanceCreationTime": ["131307.241000", "131307.245000", "131307.247000", "131307.249000", "131307.252000", "131307.254000", "131307.257000", "131307.260000", "131307.262000", "131307.265000", "131307.267000", "131307.270000", "131307.273000", "131307.275000", "131307.278000", "131307.280000", "131307.283000", "131307.285000", "131307.288000", "131307.291000", "131307.293000", "131307.296000", "131307.298000", "131347.237000", "131347.240000", "131347.243000", "131347.245000", "131347.247000", "131347.250000", "131347.252000", "131347.255000", "131347.257000", "131347.260000", "131347.262000", "131347.264000", "131347.267000", "131347.269000", "131347.272000", "131347.279000", "131347.294000", "131347.297000", "131347.299000", "131347.302000", "131427.237000", "131427.239000", "131427.249000", "131427.251000", "131427.254000", "131427.257000", "131427.259000", "131427.262000", "131427.264000", "131427.267000", "131427.269000", "131427.272000", "131427.275000", "131427.277000", "131427.280000", "131427.282000", "131427.285000", "131427.287000", "131427.290000", "131427.292000", "131507.236000", "131507.239000", "131507.242000", "131507.244000", "131507.247000", "131507.250000", "131507.252000", "131507.255000", "131507.258000", "131507.260000", "131507.263000", "131507.266000", "131507.268000", "131507.271000", "131507.273000", "131507.276000", "131507.279000", "131507.281000", "131507.284000", "131507.286000", "131547.237000", "131547.240000", "131547.242000", "131547.245000", "131547.248000", "131547.250000", "131547.253000", "131547.255000", "131547.258000", "131547.260000", "131547.270000", "131547.272000", "131547.275000", "131547.278000", "131547.280000", "131547.283000", "131547.286000", "131547.288000", "131547.291000", "131547.293000", "131627.236000", "131627.239000", "131627.242000", "131627.244000", "131627.247000", "131627.249000", "131627.252000", "131627.254000", "131627.256000", "131627.259000", "131627.261000", "131627.264000", "131627.266000", "131627.269000", "131627.272000", "131627.274000", "131627.277000", "131627.280000", "131627.282000", "131627.285000", "131707.237000", "131707.240000", "131707.242000", "131707.245000", "131707.247000", "131707.250000", "131707.252000", "131707.255000", "131707.257000", "131707.260000", "131707.262000", "131707.265000", "131707.268000", "131707.270000", "131707.273000", "131707.276000", "131707.278000", "131707.281000", "131707.283000", "131707.286000", "131747.238000", "131747.241000", "131747.244000", "131747.246000", "131747.249000", "131747.251000", "131747.254000", "131747.256000", "131747.259000", "131747.262000", "131747.264000", "131747.267000", "131747.269000", "131747.272000", "131747.275000", "131747.277000", "131747.280000", "131747.282000", "131747.285000", "131747.287000", "131827.237000", "131827.239000", "131827.242000", "131827.244000", "131827.247000", "131827.249000", "131827.252000", "131827.254000", "131827.257000", "131827.259000", "131827.261000", "131827.264000", "131827.266000", "131827.269000", "131827.271000", "131827.274000", "131827.276000", "131827.279000", "131827.281000", "131827.284000", "131907.237000", "131907.240000", "131907.242000", "131907.245000", "131907.248000", "131907.250000", "131907.253000", "131907.255000", "131907.258000", "131907.261000", "131907.263000", "131907.266000", "131907.269000", "131907.271000", "131907.274000", "131907.286000", "131907.289000", "131907.291000", "131907.294000", "131907.296000", "131947.236000", "131947.239000", "131947.242000", "131947.244000", "131947.247000", "131947.249000", "131947.252000", "131947.254000", "131947.257000", "131947.259000", "131947.262000", "131947.264000", "131947.267000", "131947.269000", "131947.271000", "131947.274000", "131947.277000", "131947.279000", "131947.281000", "131947.284000", "132015.147000", "132015.151000", "132015.154000", "132015.156000", "132015.159000", "132015.162000", "132015.166000", "132015.171000", "132015.175000", "132015.178000", "132015.181000", "132015.184000", "132015.187000", "132015.190000"],
      "InstanceNumber": [1, 2, 3, 4, 5, 6, 7, 8, 9, 10, 11, 12, 13, 14, 15, 16, 17, 18, 19, 20, 21, 22, 23, 24, 25, 26, 27, 28, 29, 30, 31, 32, 33, 34, 35, 36, 37, 38, 39, 40, 41, 42, 43, 44, 45, 46, 47, 48, 49, 50, 51, 52, 53, 54, 55, 56, 57, 58, 59, 60, 61, 62, 63, 64, 65, 66, 67, 68, 69, 70, 71, 72, 73, 74, 75, 76, 77, 78, 79, 80, 81, 82, 83, 84, 85, 86, 87, 88, 89, 90, 91, 92, 93, 94, 95, 96, 97, 98, 99, 100, 101, 102, 103, 104, 105, 106, 107, 108, 109, 110, 111, 112, 113, 114, 115, 116, 117, 118, 119, 120, 121, 122, 123, 124, 125, 126, 127, 128, 129, 130, 131, 132, 133, 134, 135, 136, 137, 138, 139, 140, 141, 142, 143, 144, 145, 146, 147, 148, 149, 150, 151, 152, 153, 154, 155, 156, 157, 158, 159, 160, 161, 162, 163, 164, 165, 166, 167, 168, 169, 170, 171, 172, 173, 174, 175, 176, 177, 178, 179, 180, 181, 182, 183, 184, 185, 186, 187, 188, 189, 190, 191, 192, 193, 194, 195, 196, 197, 198, 199, 200, 201, 202, 203, 204, 205, 206, 207, 208, 209, 210, 211, 212, 213, 214, 215, 216, 217, 218, 219, 220, 221, 222, 223, 224, 225, 226, 227, 228, 229, 230, 231, 232, 233, 234, 235, 236, 237],
      "LargestImagePixelValue": [2695, 2711, 2635, 2623, 2572, 2424, 2521, 2138, 2011, 1950, 2179, 2633, 2425, 2402, 2403, 2089, 1919, 2681, 2358, 2083, 1778, 2330, 2627, 2421, 1965, 2207, 2517, 2087, 1869, 2644, 2301, 1960, 1983, 2628, 2341, 2033, 2319, 2487, 2310, 1900, 1848, 2745, 2335, 1932, 1949, 2641, 2350, 2090, 2080, 2037, 2624, 2270, 1810, 1804, 1852, 2713, 2215, 1868, 2329, 2451, 2345, 2356, 1923, 2107, 2545, 2115, 1808, 1990, 2507, 2388, 2280, 1931, 2687, 2365, 2256, 1953, 2498, 2510, 2331, 2012, 1910, 2612, 2386, 2159, 1825, 2765, 2410, 2195, 2010, 2058, 2759, 2422, 2322, 1993, 2655, 2335, 2148, 2095, 2019, 1783, 1937, 1901, 2189, 2693, 2372, 2217, 2140, 1892, 1840, 2422, 2489, 2279, 1960, 1938, 1853, 2616, 1804, 2620, 2338, 2276, 1993, 1784, 2406, 2464, 2347, 2372, 2154, 2123, 2120, 1929, 1819, 1872, 2877, 2421, 2285, 2039, 1978, 1871, 2673, 2033, 2644, 2275, 2141, 2030, 2129, 2524, 2356, 2152, 1927, 2547, 2256, 2089, 1973, 2361, 2402, 2292, 1954, 2156, 2480, 2122, 1802, 2179, 2505, 2361, 2154, 1789, 2081, 2505, 2367, 2251, 1891, 2075, 2695, 2372, 2270, 2148, 1913, 2034, 2627, 2439, 2172, 1767, 2205, 2616, 2394, 2521, 2056, 2306, 2472, 2325, 2316, 1894, 2751, 2281, 2463, 2352, 2089, 1950, 2037, 2528, 2433, 2253, 1853, 1901, 2324, 2420, 2284, 1983, 2150, 2642, 1940, 1922, 2569, 2215, 2022, 1870, 1969, 2846, 2356, 2051, 1852, 2464, 2340, 2302, 2146, 1826, 2211, 2758, 2293, 1951, 2004, 2556, 2235, 2073, 1865, 2750, 2373],
      "WindowCenter": [678.0, 677.0, 676.0, 676.0, 676.0, 677.0, 677.0, 675.0, 675.0, 675.0, 676.0, 676.0, 675.0, 677.0, 677.0, 676.0, 674.0, 677.0, 677.0, 676.0, 675.0, 678.0, 677.0, 677.0, 675.0, 676.0, 676.0, 676.0, 676.0, 677.0, 677.0, 675.0, 676.0, 677.0, 675.0, 675.0, 676.0, 676.0, 677.0, 676.0, 676.0, 678.0, 676.0, 675.0, 676.0, 676.0, 676.0, 676.0, 675.0, 676.0, 676.0, 675.0, 674.0, 675.0, 677.0, 678.0, 676.0, 675.0, 675.0, 676.0, 676.0, 675.0, 674.0, 675.0, 676.0, 676.0, 675.0, 675.0, 677.0, 677.0, 677.0, 675.0, 677.0, 677.0, 677.0, 676.0, 677.0, 676.0, 675.0, 675.0, 676.0, 677.0, 676.0, 675.0, 674.0, 677.0, 676.0, 676.0, 677.0, 676.0, 677.0, 676.0, 676.0, 677.0, 677.0, 676.0, 676.0, 675.0, 675.0, 676.0, 674.0, 676.0, 675.0, 676.0, 676.0, 676.0, 675.0, 676.0, 675.0, 677.0, 676.0, 676.0, 675.0, 676.0, 676.0, 677.0, 675.0, 677.0, 675.0, 675.0, 675.0, 674.0, 676.0, 675.0, 676.0, 675.0, 676.0, 675.0, 676.0, 676.0, 675.0, 677.0, 677.0, 677.0, 676.0, 674.0, 675.0, 674.0, 677.0, 675.0, 676.0, 676.0, 677.0, 677.0, 676.0, 677.0, 677.0, 676.0, 674.0, 675.0, 674.0, 676.0, 677.0, 678.0, 678.0, 677.0, 674.0, 675.0, 675.0, 674.0, 674.0, 676.0, 676.0, 676.0, 676.0, 674.0, 677.0, 676.0, 677.0, 676.0, 676.0, 676.0, 678.0, 677.0, 677.0, 676.0, 675.0, 675.0, 677.0, 676.0, 675.0, 675.0, 676.0, 676.0, 676.0, 676.0, 675.0, 674.0, 676.0, 677.0, 676.0, 676.0, 677.0, 675.0, 677.0, 677.0, 675.0, 674.0, 675.0, 675.0, 676.0, 676.0, 674.0, 675.0, 676.0, 678.0, 677.0, 676.0, 675.0, 676.0, 674.0, 674.0, 677.0, 676.0, 676.0, 676.0, 676.0, 677.0, 675.0, 675.0, 675.0, 676.0, 677.0, 677.0, 676.0, 676.0, 676.0, 676.0, 676.0, 674.0, 675.0, 677.0, 675.0, 675.0, 676.0, 677.0, 676.0],
      "WindowWidth": [1500.0, 1498.0, 1495.0, 1495.0, 1496.0, 1496.0, 1498.0, 1492.0, 1491.0, 1492.0, 1493.0, 1495.0, 1492.0, 1496.0, 1497.0, 1492.0, 1488.0, 1496.0, 1496.0, 1494.0, 1492.0, 1499.0, 1499.0, 1496.0, 1491.0, 1494.0, 1494.0, 1493.0, 1491.0, 1497.0, 1496.0, 1490.0, 1492.0, 1495.0, 1491.0, 1490.0, 1492.0, 1495.0, 1497.0, 1492.0, 1492.0, 1499.0, 1494.0, 1491.0, 1493.0, 1495.0, 1494.0, 1493.0, 1493.0, 1493.0, 1495.0, 1492.0, 1488.0, 1490.0, 1497.0, 1500.0, 1494.0, 1490.0, 1492.0, 1494.0, 1495.0, 1492.0, 1486.0, 1489.0, 1494.0, 1492.0, 1490.0, 1491.0, 1497.0, 1498.0, 1497.0, 1490.0, 1495.0, 1496.0, 1497.0, 1494.0, 1495.0, 1495.0, 1491.0, 1490.0, 1492.0, 1498.0, 1493.0, 1491.0, 1489.0, 1497.0, 1494.0, 1494.0, 1496.0, 1494.0, 1497.0, 1494.0, 1494.0, 1497.0, 1497.0, 1493.0, 1492.0, 1492.0, 1493.0, 1491.0, 1488.0, 1492.0, 1492.0, 1494.0, 1493.0, 1493.0, 1493.0, 1493.0, 1491.0, 1496.0, 1494.0, 1494.0, 1490.0, 1493.0, 1492.0, 1496.0, 1492.0, 1496.0, 1491.0, 1490.0, 1490.0, 1488.0, 1494.0, 1492.0, 1493.0, 1492.0, 1493.0, 1492.0, 1494.0, 1493.0, 1492.0, 1495.0, 1498.0, 1496.0, 1493.0, 1490.0, 1490.0, 1488.0, 1496.0, 1490.0, 1493.0, 1493.0, 1496.0, 1496.0, 1495.0, 1497.0, 1496.0, 1492.0, 1487.0, 1492.0, 1489.0, 1492.0, 1495.0, 1500.0, 1501.0, 1496.0, 1489.0, 1490.0, 1491.0, 1489.0, 1488.0, 1493.0, 1495.0, 1493.0, 1493.0, 1488.0, 1495.0, 1496.0, 1498.0, 1495.0, 1494.0, 1493.0, 1498.0, 1497.0, 1496.0, 1494.0, 1491.0, 1492.0, 1496.0, 1493.0, 1492.0, 1489.0, 1494.0, 1495.0, 1493.0, 1495.0, 1490.0, 1489.0, 1493.0, 1496.0, 1496.0, 1493.0, 1497.0, 1493.0, 1498.0, 1496.0, 1491.0, 1489.0, 1490.0, 1492.0, 1493.0, 1493.0, 1487.0, 1491.0, 1495.0, 1498.0, 1497.0, 1492.0, 1492.0, 1494.0, 1488.0, 1489.0, 1498.0, 1494.0, 1492.0, 1493.0, 1492.0, 1497.0, 1491.0, 1490.0, 1490.0, 1496.0, 1496.0, 1496.0, 1495.0, 1493.0, 1495.0, 1495.0, 1493.0, 1489.0, 1490.0, 1495.0, 1493.0, 1493.0, 1493.0, 1498.0, 1495.0]
    },
    "slices": {}
  }
}