{
  "AcquisitionMatrixPE": 70,
  "AcquisitionNumber": 1,
  "AcquisitionTime": "12:11:40.505000",
  "BandwidthPerPixelPhaseEncode": 38.873,
  "BaseResolution": 70,
  "BodyPartExamined": "HEAD",
  "ConsistencyInfo": "N4_VE11B_LATEST_20150530",
  "ConversionSoftware": "dcm2niix",
  "ConversionSoftwareVersion": "v1.0.20190410  GCC6.3.0",
  "DerivedVendorReportedEchoSpacing": 0.000489996,
  "DeviceSerialNumber": "66088",
  "DwellTime": 2.9e-06,
  "EchoTime": 0.03,
  "EchoTrainLength": 53,
  "EffectiveEchoSpacing": 0.000367497,
  "FlipAngle": 90,
  "ImageOrientationPatientDICOM": [0.999779, -0.0194944, 0.0078088, 0.0209424, 0.897955, -0.439589],
  "ImageType": [
    "ORIGINAL",
    "PRIMARY",
    "M",
    "ND",
    "NORM",
    "MOSAIC"
],
  "ImagingFrequency": 123.191,
  "InPlanePhaseEncodingDirectionDICOM": "COL",
  "InstitutionAddress": "Street_StreetNo_City_District_IR_ZIP",
  "InstitutionName": "NBML",
  "InstitutionalDepartmentName": "Department",
  "MRAcquisitionType": "2D",
  "MagneticFieldStrength": 3,
  "Manufacturer": "Siemens",
  "ManufacturersModelName": "Prisma",
  "Modality": "MR",
  "ParallelReductionFactorInPlane": 2,
  "PartialFourier": 1,
  "PatientPosition": "HFS",
  "PercentPhaseFOV": 100,
  "PhaseEncodingDirection": "j-",
  "PhaseEncodingSteps": 105,
  "PhaseOversampling": 0.5,
  "PhaseResolution": 1,
  "PixelBandwidth": 2465,
  "ProcedureStepDescription": "NBML_Project_P-96169-Ebrahiminiya",
  "ProtocolName": "ep2d_p2_Task_3.5_measurment:237",
  "PulseSequenceDetails": "%SiemensSeq%_ep2d_pace",
  "ReceiveCoilActiveElements": "HC1-7;NC1",
  "ReceiveCoilName": "HeadNeck_64",
  "ReconMatrixPE": 70,
  "RefLinesPE": 24,
  "RepetitionTime": 2,
  "SAR": 0.0908239,
  "ScanOptions": "FS",
  "ScanningSequence": "EP",
  "SequenceName": "_epfid2d1_70",
  "SequenceVariant": "SK_OSP",
  "SeriesDescription": "ep2d_p2_Task_3.5_measurment:237",
  "SeriesNumber": 3,
  "ShimSetting": [2595, -4469, -3211, 397, 38, 78, -86, 17],
  "SliceThickness": 3.5,
  "SliceTiming": [0.99, 0, 1.0475, 0.0575, 1.105, 0.115, 1.165, 0.175, 1.2225, 0.2325, 1.28, 0.29, 1.34, 0.35, 1.3975, 0.4075, 1.455, 0.465, 1.5125, 0.5225, 1.5725, 0.5825, 1.63, 0.64, 1.6875, 0.6975, 1.7475, 0.7575, 1.805, 0.815, 1.8625, 0.8725, 1.92, 0.9325],
  "SoftwareVersions": "syngo_MR_E11",
  "SpacingBetweenSlices": 3.85,
  "StationName": "AWP66088",
  "TaskName": "categorySelectivity",
  "TotalReadoutTime": 0.0253573,
  "TxRefAmp": 220.126,
  "dcmmeta_affine": [
    [-3.5420758724212646, 0.07419600337743759, -0.005996745079755783, 124.1137924194336],
    [0.06906605511903763, 3.1813254356384277, -1.6926747560501099, -83.88861083984375],
    [0.027665480971336365, 1.5574017763137817, 3.457935333251953, -86.84864807128906],
    [0.0, 0.0, 0.0, 1.0]
],
  "dcmmeta_reorient_transform": [
    [0.0, -1.0, 0.0, 69.0],
    [1.0, 0.0, 0.0, 0.0],
    [0.0, 0.0, 1.0, 0.0],
    [0.0, 0.0, 0.0, 1.0]
],
  "dcmmeta_shape": [70, 70, 34, 237],
  "dcmmeta_slice_dim": 2,
  "dcmmeta_version": 0.6,
  "global": {
    "const": {
      "AccessionNumber": "M.BRZ",
      "AcquisitionMatrix": [70, 0, 0, 70],
      "AngioFlag": "N",
      "BitsAllocated": 16,
      "BitsStored": 12,
      "BodyPartExamined": "HEAD",
      "Columns": 420,
      "EchoNumbers": 1,
      "EchoTime": 30.0,
      "EchoTrainLength": 53,
      "FlipAngle": 90.0,
      "HighBit": 11,
      "ImageOrientationPatient": [0.99977947016852, -0.0194944503631, 0.00780880494023, 0.02094241924877, 0.89795476365129, -0.4395891917597],
      "ImagePositionPatient": [-762.08089490608, -680.26824756797, 288.31591458567],
      "ImageType": [
        "ORIGINAL",
        "PRIMARY",
        "M",
        "ND",
        "NORM",
        "MOSAIC"
],
      "ImagedNucleus": "1H",
      "ImagingFrequency": 123.191138,
      "InPlanePhaseEncodingDirection": "COL",
      "MRAcquisitionType": "2D",
      "MagneticFieldStrength": 3.0,
      "Manufacturer": "SIEMENS",
      "ManufacturerModelName": "Prisma",
      "Modality": "MR",
      "NumberOfAverages": 1.0,
      "NumberOfPhaseEncodingSteps": 105,
      "PercentPhaseFieldOfView": 100.0,
      "PercentSampling": 100.0,
      "PerformedProcedureStepStartTime": "120151.768000",
      "PhotometricInterpretation": "MONOCHROME2",
      "PixelBandwidth": 2465.0,
      "PixelRepresentation": 0,
      "PixelSpacing": [3.542857170105, 3.542857170105],
      "ProtocolName": "ep2d_p2_Task_3.5_measurment:237",
      "RepetitionTime": 2000.0,
      "Rows": 420,
      "SAR": 0.09082385061851,
      "SamplesPerPixel": 1,
      "ScanOptions": "FS",
      "ScanningSequence": "EP",
      "SequenceName": "*epfid2d1_70",
      "SequenceVariant": [
        "SK",
        "OSP"
],
      "SeriesDescription": "ep2d_p2_Task_3.5_measurment:237",
      "SeriesNumber": 3,
      "SeriesTime": "121153.679000",
      "SliceLocation": -41.315621194993,
      "SliceThickness": 3.5,
      "SmallestImagePixelValue": 0,
      "SoftwareVersions": "syngo MR E11",
      "SpacingBetweenSlices": 3.8499999673427,
      "SpecificCharacterSet": "ISO_IR 100",
      "StudyID": "1",
      "StudyTime": "120151.680000",
      "TransmitCoilName": "Body",
      "VariableFlipAngleFlag": "N",
      "WindowCenterWidthExplanation": "Algo1",
      "dBdt": 0.0},
    "slices": {}
  },
  "time": {
    "samples": {
      "AcquisitionNumber": [1, 2, 3, 4, 5, 6, 7, 8, 9, 10, 11, 12, 13, 14, 15, 16, 17, 18, 19, 20, 21, 22, 23, 24, 25, 26, 27, 28, 29, 30, 31, 32, 33, 34, 35, 36, 37, 38, 39, 40, 41, 42, 43, 44, 45, 46, 47, 48, 49, 50, 51, 52, 53, 54, 55, 56, 57, 58, 59, 60, 61, 62, 63, 64, 65, 66, 67, 68, 69, 70, 71, 72, 73, 74, 75, 76, 77, 78, 79, 80, 81, 82, 83, 84, 85, 86, 87, 88, 89, 90, 91, 92, 93, 94, 95, 96, 97, 98, 99, 100, 101, 102, 103, 104, 105, 106, 107, 108, 109, 110, 111, 112, 113, 114, 115, 116, 117, 118, 119, 120, 121, 122, 123, 124, 125, 126, 127, 128, 129, 130, 131, 132, 133, 134, 135, 136, 137, 138, 139, 140, 141, 142, 143, 144, 145, 146, 147, 148, 149, 150, 151, 152, 153, 154, 155, 156, 157, 158, 159, 160, 161, 162, 163, 164, 165, 166, 167, 168, 169, 170, 171, 172, 173, 174, 175, 176, 177, 178, 179, 180, 181, 182, 183, 184, 185, 186, 187, 188, 189, 190, 191, 192, 193, 194, 195, 196, 197, 198, 199, 200, 201, 202, 203, 204, 205, 206, 207, 208, 209, 210, 211, 212, 213, 214, 215, 216, 217, 218, 219, 220, 221, 222, 223, 224, 225, 226, 227, 228, 229, 230, 231, 232, 233, 234, 235, 236, 237],
      "AcquisitionTime": ["121140.505000", "121142.505000", "121144.505000", "121146.505000", "121148.505000", "121150.505000", "121152.505000", "121154.505000", "121156.505000", "121158.505000", "121200.505000", "121202.505000", "121204.505000", "121206.505000", "121208.505000", "121210.505000", "121212.505000", "121214.505000", "121216.505000", "121218.505000", "121220.505000", "121222.505000", "121224.505000", "121226.505000", "121228.505000", "121230.505000", "121232.505000", "121234.505000", "121236.505000", "121238.505000", "121240.505000", "121242.505000", "121244.505000", "121246.505000", "121248.505000", "121250.505000", "121252.505000", "121254.505000", "121256.505000", "121258.505000", "121300.505000", "121302.505000", "121304.505000", "121306.505000", "121308.505000", "121310.505000", "121312.505000", "121314.505000", "121316.505000", "121318.505000", "121320.505000", "121322.505000", "121324.505000", "121326.505000", "121328.505000", "121330.505000", "121332.505000", "121334.505000", "121336.505000", "121338.505000", "121340.505000", "121342.505000", "121344.505000", "121346.505000", "121348.505000", "121350.505000", "121352.505000", "121354.505000", "121356.505000", "121358.505000", "121400.505000", "121402.505000", "121404.505000", "121406.505000", "121408.505000", "121410.505000", "121412.505000", "121414.505000", "121416.505000", "121418.505000", "121420.505000", "121422.505000", "121424.505000", "121426.505000", "121428.505000", "121430.505000", "121432.505000", "121434.505000", "121436.505000", "121438.505000", "121440.505000", "121442.505000", "121444.505000", "121446.505000", "121448.505000", "121450.505000", "121452.505000", "121454.505000", "121456.505000", "121458.505000", "121500.505000", "121502.505000", "121504.505000", "121506.505000", "121508.505000", "121510.505000", "121512.505000", "121514.505000", "121516.505000", "121518.505000", "121520.505000", "121522.505000", "121524.505000", "121526.505000", "121528.505000", "121530.505000", "121532.505000", "121534.505000", "121536.505000", "121538.505000", "121540.505000", "121542.505000", "121544.505000", "121546.505000", "121548.505000", "121550.505000", "121552.505000", "121554.505000", "121556.505000", "121558.505000", "121600.505000", "121602.505000", "121604.505000", "121606.505000", "121608.505000", "121610.505000", "121612.505000", "121614.505000", "121616.505000", "121618.505000", "121620.505000", "121622.505000", "121624.505000", "121626.505000", "121628.505000", "121630.505000", "121632.505000", "121634.505000", "121636.505000", "121638.505000", "121640.505000", "121642.505000", "121644.505000", "121646.505000", "121648.505000", "121650.505000", "121652.505000", "121654.505000", "121656.505000", "121658.505000", "121700.505000", "121702.505000", "121704.505000", "121706.505000", "121708.505000", "121710.505000", "121712.505000", "121714.505000", "121716.505000", "121718.505000", "121720.505000", "121722.505000", "121724.505000", "121726.505000", "121728.505000", "121730.505000", "121732.505000", "121734.505000", "121736.505000", "121738.505000", "121740.505000", "121742.505000", "121744.505000", "121746.505000", "121748.505000", "121750.505000", "121752.505000", "121754.505000", "121756.505000", "121758.505000", "121800.505000", "121802.505000", "121804.505000", "121806.505000", "121808.505000", "121810.505000", "121812.505000", "121814.505000", "121816.505000", "121818.505000", "121820.505000", "121822.505000", "121824.505000", "121826.505000", "121828.505000", "121830.505000", "121832.505000", "121834.505000", "121836.505000", "121838.505000", "121840.505000", "121842.505000", "121844.505000", "121846.505000", "121848.505000", "121850.505000", "121852.505000", "121854.505000", "121856.505000", "121858.505000", "121900.505000", "121902.505000", "121904.505000", "121906.505000", "121908.505000", "121910.505000", "121912.505000", "121914.505000", "121916.505000", "121918.505000", "121920.505000", "121922.505000", "121924.505000", "121926.505000", "121928.505000", "121930.505000", "121932.505000"],
      "ContentTime": ["121153.682000", "121153.685000", "121153.688000", "121153.690000", "121153.693000", "121153.695000", "121233.677000", "121233.680000", "121233.682000", "121233.684000", "121233.687000", "121233.689000", "121233.692000", "121233.694000", "121233.697000", "121233.711000", "121233.713000", "121233.716000", "121233.719000", "121233.722000", "121233.724000", "121233.726000", "121233.729000", "121233.732000", "121233.734000", "121233.737000", "121313.676000", "121313.680000", "121313.682000", "121313.685000", "121313.687000", "121313.689000", "121313.692000", "121313.694000", "121313.697000", "121313.699000", "121313.702000", "121313.704000", "121313.707000", "121313.719000", "121313.721000", "121313.724000", "121313.726000", "121313.729000", "121313.731000", "121313.734000", "121353.677000", "121353.680000", "121353.683000", "121353.685000", "121353.688000", "121353.690000", "121353.693000", "121353.703000", "121353.706000", "121353.708000", "121353.711000", "121353.713000", "121353.717000", "121353.719000", "121353.722000", "121353.724000", "121353.727000", "121353.729000", "121353.732000", "121353.735000", "121433.677000", "121433.679000", "121433.682000", "121433.684000", "121433.687000", "121433.689000", "121433.692000", "121433.694000", "121433.697000", "121433.699000", "121433.702000", "121433.704000", "121433.707000", "121433.709000", "121433.712000", "121433.715000", "121433.718000", "121433.720000", "121433.723000", "121433.725000", "121513.677000", "121513.680000", "121513.682000", "121513.685000", "121513.687000", "121513.690000", "121513.693000", "121513.695000", "121513.698000", "121513.701000", "121513.703000", "121513.706000", "121513.708000", "121513.711000", "121513.715000", "121513.718000", "121513.720000", "121513.731000", "121513.734000", "121513.738000", "121553.679000", "121553.682000", "121553.684000", "121553.687000", "121553.689000", "121553.691000", "121553.694000", "121553.696000", "121553.699000", "121553.701000", "121553.704000", "121553.706000", "121553.709000", "121553.713000", "121553.715000", "121553.718000", "121553.720000", "121553.723000", "121553.725000", "121553.728000", "121633.678000", "121633.681000", "121633.683000", "121633.685000", "121633.688000", "121633.690000", "121633.693000", "121633.695000", "121633.698000", "121633.700000", "121633.703000", "121633.705000", "121633.708000", "121633.710000", "121633.715000", "121633.718000", "121633.720000", "121633.734000", "121633.737000", "121633.739000", "121713.677000", "121713.689000", "121713.691000", "121713.694000", "121713.696000", "121713.699000", "121713.701000", "121713.704000", "121713.706000", "121713.709000", "121713.713000", "121713.716000", "121713.718000", "121713.721000", "121713.723000", "121713.725000", "121713.728000", "121713.731000", "121713.734000", "121713.737000", "121753.677000", "121753.679000", "121753.682000", "121753.684000", "121753.687000", "121753.689000", "121753.692000", "121753.694000", "121753.697000", "121753.699000", "121753.702000", "121753.704000", "121753.707000", "121753.709000", "121753.713000", "121753.715000", "121753.718000", "121753.720000", "121753.723000", "121753.725000", "121833.678000", "121833.680000", "121833.683000", "121833.685000", "121833.688000", "121833.690000", "121833.693000", "121833.695000", "121833.698000", "121833.700000", "121833.703000", "121833.705000", "121833.708000", "121833.711000", "121833.714000", "121833.717000", "121833.719000", "121833.722000", "121833.724000", "121833.727000", "121913.677000", "121913.679000", "121913.682000", "121913.685000", "121913.687000", "121913.690000", "121913.692000", "121913.695000", "121913.698000", "121913.700000", "121913.703000", "121913.706000", "121913.708000", "121913.712000", "121913.715000", "121913.717000", "121913.720000", "121913.723000", "121913.725000", "121913.728000", "121933.750000", "121933.753000", "121933.755000", "121933.758000", "121933.761000", "121933.763000", "121933.766000", "121933.768000", "121933.770000", "121933.773000", "121933.776000"],
      "InstanceCreationTime": ["121153.682000", "121153.685000", "121153.688000", "121153.690000", "121153.693000", "121153.695000", "121233.677000", "121233.680000", "121233.682000", "121233.684000", "121233.687000", "121233.689000", "121233.692000", "121233.694000", "121233.697000", "121233.711000", "121233.713000", "121233.716000", "121233.719000", "121233.722000", "121233.724000", "121233.726000", "121233.729000", "121233.732000", "121233.734000", "121233.737000", "121313.676000", "121313.680000", "121313.682000", "121313.685000", "121313.687000", "121313.689000", "121313.692000", "121313.694000", "121313.697000", "121313.699000", "121313.702000", "121313.704000", "121313.707000", "121313.719000", "121313.721000", "121313.724000", "121313.726000", "121313.729000", "121313.731000", "121313.734000", "121353.677000", "121353.680000", "121353.683000", "121353.685000", "121353.688000", "121353.690000", "121353.693000", "121353.703000", "121353.706000", "121353.708000", "121353.711000", "121353.713000", "121353.717000", "121353.719000", "121353.722000", "121353.724000", "121353.727000", "121353.729000", "121353.732000", "121353.735000", "121433.677000", "121433.679000", "121433.682000", "121433.684000", "121433.687000", "121433.689000", "121433.692000", "121433.694000", "121433.697000", "121433.699000", "121433.702000", "121433.704000", "121433.707000", "121433.709000", "121433.712000", "121433.715000", "121433.718000", "121433.720000", "121433.723000", "121433.725000", "121513.677000", "121513.680000", "121513.682000", "121513.685000", "121513.687000", "121513.690000", "121513.693000", "121513.695000", "121513.698000", "121513.701000", "121513.703000", "121513.706000", "121513.708000", "121513.711000", "121513.715000", "121513.718000", "121513.720000", "121513.731000", "121513.734000", "121513.738000", "121553.679000", "121553.682000", "121553.684000", "121553.687000", "121553.689000", "121553.691000", "121553.694000", "121553.696000", "121553.699000", "121553.701000", "121553.704000", "121553.706000", "121553.709000", "121553.713000", "121553.715000", "121553.718000", "121553.720000", "121553.723000", "121553.725000", "121553.728000", "121633.678000", "121633.681000", "121633.683000", "121633.685000", "121633.688000", "121633.690000", "121633.693000", "121633.695000", "121633.698000", "121633.700000", "121633.703000", "121633.705000", "121633.708000", "121633.710000", "121633.715000", "121633.718000", "121633.720000", "121633.734000", "121633.737000", "121633.739000", "121713.677000", "121713.689000", "121713.691000", "121713.694000", "121713.696000", "121713.699000", "121713.701000", "121713.704000", "121713.706000", "121713.709000", "121713.713000", "121713.716000", "121713.718000", "121713.721000", "121713.723000", "121713.725000", "121713.728000", "121713.731000", "121713.734000", "121713.737000", "121753.677000", "121753.679000", "121753.682000", "121753.684000", "121753.687000", "121753.689000", "121753.692000", "121753.694000", "121753.697000", "121753.699000", "121753.702000", "121753.704000", "121753.707000", "121753.709000", "121753.713000", "121753.715000", "121753.718000", "121753.720000", "121753.723000", "121753.725000", "121833.678000", "121833.680000", "121833.683000", "121833.685000", "121833.688000", "121833.690000", "121833.693000", "121833.695000", "121833.698000", "121833.700000", "121833.703000", "121833.705000", "121833.708000", "121833.711000", "121833.714000", "121833.717000", "121833.719000", "121833.722000", "121833.724000", "121833.727000", "121913.677000", "121913.679000", "121913.682000", "121913.685000", "121913.687000", "121913.690000", "121913.692000", "121913.695000", "121913.698000", "121913.700000", "121913.703000", "121913.706000", "121913.708000", "121913.712000", "121913.715000", "121913.717000", "121913.720000", "121913.723000", "121913.725000", "121913.728000", "121933.750000", "121933.753000", "121933.755000", "121933.758000", "121933.761000", "121933.763000", "121933.766000", "121933.768000", "121933.770000", "121933.773000", "121933.776000"],
      "InstanceNumber": [1, 2, 3, 4, 5, 6, 7, 8, 9, 10, 11, 12, 13, 14, 15, 16, 17, 18, 19, 20, 21, 22, 23, 24, 25, 26, 27, 28, 29, 30, 31, 32, 33, 34, 35, 36, 37, 38, 39, 40, 41, 42, 43, 44, 45, 46, 47, 48, 49, 50, 51, 52, 53, 54, 55, 56, 57, 58, 59, 60, 61, 62, 63, 64, 65, 66, 67, 68, 69, 70, 71, 72, 73, 74, 75, 76, 77, 78, 79, 80, 81, 82, 83, 84, 85, 86, 87, 88, 89, 90, 91, 92, 93, 94, 95, 96, 97, 98, 99, 100, 101, 102, 103, 104, 105, 106, 107, 108, 109, 110, 111, 112, 113, 114, 115, 116, 117, 118, 119, 120, 121, 122, 123, 124, 125, 126, 127, 128, 129, 130, 131, 132, 133, 134, 135, 136, 137, 138, 139, 140, 141, 142, 143, 144, 145, 146, 147, 148, 149, 150, 151, 152, 153, 154, 155, 156, 157, 158, 159, 160, 161, 162, 163, 164, 165, 166, 167, 168, 169, 170, 171, 172, 173, 174, 175, 176, 177, 178, 179, 180, 181, 182, 183, 184, 185, 186, 187, 188, 189, 190, 191, 192, 193, 194, 195, 196, 197, 198, 199, 200, 201, 202, 203, 204, 205, 206, 207, 208, 209, 210, 211, 212, 213, 214, 215, 216, 217, 218, 219, 220, 221, 222, 223, 224, 225, 226, 227, 228, 229, 230, 231, 232, 233, 234, 235, 236, 237],
      "LargestImagePixelValue": [2147, 2205, 2207, 2194, 2336, 2005, 2166, 1819, 2017, 2213, 2468, 2326, 2085, 2425, 1762, 2101, 2456, 1867, 2329, 2578, 1891, 2343, 1900, 2291, 2439, 1966, 2437, 1949, 2373, 2525, 2035, 2501, 1819, 2279, 2202, 2152, 2655, 2075, 2567, 1969, 2431, 2009, 2495, 1841, 2270, 1830, 2304, 2542, 2014, 2373, 2396, 1954, 2238, 2389, 2309, 2290, 2435, 2424, 1841, 2522, 1982, 1944, 2048, 2267, 2320, 2393, 2352, 1850, 2166, 1948, 2300, 1959, 1983, 2145, 2190, 2207, 2257, 2285, 2372, 2440, 1836, 1921, 2077, 2256, 2278, 2467, 2413, 2310, 1902, 1876, 1962, 2046, 2258, 2319, 2406, 2462, 1969, 1952, 2166, 2231, 2215, 2014, 2092, 2323, 2337, 2426, 2317, 2145, 2367, 2361, 1795, 1853, 2181, 1828, 1909, 1967, 1929, 1883, 1867, 2368, 2127, 2047, 2385, 2241, 1868, 2223, 2356, 2194, 2197, 2380, 2255, 2128, 2069, 1998, 2011, 1968, 1933, 2022, 1956, 2051, 1909, 1935, 2077, 2074, 2008, 1815, 2128, 1888, 1823, 1846, 1952, 2220, 2419, 2266, 2283, 2269, 2263, 2285, 2115, 2067, 2102, 1980, 2582, 2116, 1756, 1923, 2284, 1861, 2302, 2132, 2131, 1949, 1915, 1843, 2132, 2418, 2235, 2202, 1976, 1815, 2317, 2150, 2071, 1999, 1944, 2264, 2268, 2090, 1901, 1880, 2514, 2127, 1916, 1847, 2450, 2143, 2133, 2623, 2181, 1882, 1835, 2419, 2174, 1854, 1797, 2469, 2217, 2125, 2001, 1858, 2506, 2173, 1890, 2202, 2212, 1858, 2585, 2108, 1821, 2293, 2158, 1856, 2440, 2273, 2128, 1899, 2559, 2285, 2145, 2198, 2239, 2242, 2105, 2195, 2152, 2062, 2132],
      "WindowCenter": [677.0, 676.0, 675.0, 676.0, 677.0, 678.0, 676.0, 675.0, 677.0, 677.0, 678.0, 676.0, 677.0, 677.0, 676.0, 676.0, 678.0, 677.0, 678.0, 676.0, 676.0, 677.0, 676.0, 677.0, 678.0, 677.0, 678.0, 678.0, 678.0, 677.0, 677.0, 678.0, 677.0, 679.0, 679.0, 678.0, 677.0, 676.0, 677.0, 676.0, 678.0, 677.0, 677.0, 675.0, 675.0, 676.0, 678.0, 677.0, 677.0, 677.0, 677.0, 677.0, 677.0, 676.0, 677.0, 678.0, 676.0, 678.0, 676.0, 678.0, 677.0, 677.0, 676.0, 677.0, 676.0, 676.0, 677.0, 678.0, 678.0, 676.0, 678.0, 676.0, 676.0, 678.0, 678.0, 678.0, 677.0, 677.0, 677.0, 677.0, 676.0, 675.0, 676.0, 676.0, 678.0, 677.0, 677.0, 677.0, 675.0, 677.0, 677.0, 676.0, 678.0, 678.0, 677.0, 677.0, 676.0, 676.0, 677.0, 676.0, 677.0, 677.0, 678.0, 676.0, 677.0, 676.0, 677.0, 678.0, 677.0, 675.0, 676.0, 676.0, 676.0, 674.0, 675.0, 676.0, 675.0, 675.0, 674.0, 676.0, 678.0, 678.0, 677.0, 678.0, 676.0, 678.0, 676.0, 676.0, 676.0, 677.0, 676.0, 676.0, 676.0, 675.0, 675.0, 675.0, 676.0, 675.0, 675.0, 675.0, 676.0, 677.0, 676.0, 675.0, 675.0, 674.0, 675.0, 676.0, 676.0, 677.0, 676.0, 677.0, 676.0, 675.0, 677.0, 676.0, 676.0, 677.0, 676.0, 676.0, 678.0, 677.0, 676.0, 674.0, 673.0, 676.0, 677.0, 675.0, 677.0, 677.0, 677.0, 676.0, 675.0, 676.0, 677.0, 677.0, 676.0, 675.0, 676.0, 676.0, 677.0, 677.0, 676.0, 677.0, 676.0, 677.0, 677.0, 675.0, 675.0, 674.0, 675.0, 675.0, 674.0, 674.0, 676.0, 676.0, 677.0, 676.0, 675.0, 675.0, 676.0, 676.0, 676.0, 676.0, 675.0, 677.0, 677.0, 676.0, 675.0, 675.0, 677.0, 677.0, 676.0, 676.0, 676.0, 675.0, 677.0, 675.0, 674.0, 677.0, 677.0, 676.0, 676.0, 675.0, 676.0, 675.0, 676.0, 677.0, 678.0, 678.0, 677.0, 676.0, 677.0, 676.0, 677.0, 676.0, 677.0],
      "WindowWidth": [1500.0, 1496.0, 1494.0, 1495.0, 1499.0, 1502.0, 1498.0, 1494.0, 1498.0, 1499.0, 1503.0, 1497.0, 1499.0, 1500.0, 1496.0, 1498.0, 1503.0, 1499.0, 1500.0, 1497.0, 1495.0, 1501.0, 1497.0, 1500.0, 1502.0, 1499.0, 1503.0, 1501.0, 1503.0, 1501.0, 1500.0, 1503.0, 1499.0, 1504.0, 1504.0, 1500.0, 1501.0, 1496.0, 1499.0, 1495.0, 1501.0, 1500.0, 1501.0, 1494.0, 1495.0, 1497.0, 1501.0, 1501.0, 1499.0, 1500.0, 1499.0, 1498.0, 1499.0, 1498.0, 1501.0, 1503.0, 1498.0, 1501.0, 1498.0, 1502.0, 1498.0, 1500.0, 1497.0, 1499.0, 1496.0, 1496.0, 1500.0, 1501.0, 1501.0, 1496.0, 1502.0, 1494.0, 1495.0, 1501.0, 1502.0, 1500.0, 1499.0, 1499.0, 1499.0, 1499.0, 1495.0, 1495.0, 1495.0, 1496.0, 1500.0, 1500.0, 1500.0, 1499.0, 1495.0, 1497.0, 1499.0, 1497.0, 1501.0, 1502.0, 1499.0, 1500.0, 1496.0, 1496.0, 1498.0, 1497.0, 1498.0, 1499.0, 1501.0, 1497.0, 1498.0, 1497.0, 1499.0, 1501.0, 1500.0, 1494.0, 1495.0, 1495.0, 1496.0, 1491.0, 1493.0, 1494.0, 1492.0, 1492.0, 1491.0, 1498.0, 1500.0, 1501.0, 1499.0, 1501.0, 1497.0, 1502.0, 1497.0, 1496.0, 1497.0, 1500.0, 1498.0, 1496.0, 1495.0, 1494.0, 1495.0, 1493.0, 1495.0, 1495.0, 1494.0, 1492.0, 1495.0, 1497.0, 1495.0, 1494.0, 1492.0, 1489.0, 1493.0, 1494.0, 1496.0, 1498.0, 1495.0, 1498.0, 1497.0, 1494.0, 1498.0, 1497.0, 1497.0, 1499.0, 1496.0, 1495.0, 1500.0, 1500.0, 1498.0, 1490.0, 1488.0, 1495.0, 1498.0, 1492.0, 1498.0, 1498.0, 1498.0, 1494.0, 1493.0, 1495.0, 1498.0, 1499.0, 1496.0, 1494.0, 1494.0, 1494.0, 1499.0, 1498.0, 1496.0, 1498.0, 1495.0, 1499.0, 1499.0, 1493.0, 1492.0, 1490.0, 1494.0, 1492.0, 1489.0, 1491.0, 1496.0, 1496.0, 1497.0, 1496.0, 1492.0, 1492.0, 1494.0, 1496.0, 1496.0, 1493.0, 1493.0, 1498.0, 1499.0, 1496.0, 1493.0, 1492.0, 1500.0, 1497.0, 1493.0, 1495.0, 1496.0, 1493.0, 1499.0, 1493.0, 1490.0, 1499.0, 1499.0, 1495.0, 1496.0, 1493.0, 1495.0, 1493.0, 1495.0, 1499.0, 1502.0, 1500.0, 1498.0, 1496.0, 1497.0, 1496.0, 1498.0, 1496.0, 1498.0]
    },
    "slices": {}
  }
}