{
  "AcquisitionMatrixPE": 70,
  "AcquisitionNumber": 1,
  "AcquisitionTime": "12:54:57.555000",
  "BandwidthPerPixelPhaseEncode": 38.873,
  "BaseResolution": 70,
  "BodyPartExamined": "HEAD",
  "ConsistencyInfo": "N4_VE11B_LATEST_20150530",
  "ConversionSoftware": "dcm2niix",
  "ConversionSoftwareVersion": "v1.0.20190410  GCC6.3.0",
  "DerivedVendorReportedEchoSpacing": 0.000489996,
  "DeviceSerialNumber": "66088",
  "DwellTime": 2.9e-06,
  "EchoTime": 0.03,
  "EchoTrainLength": 53,
  "EffectiveEchoSpacing": 0.000367497,
  "FlipAngle": 90,
  "ImageOrientationPatientDICOM": [0.999779, -0.0194944, 0.0078088, 0.0209424, 0.897955, -0.439589],
  "ImageType": [
    "ORIGINAL",
    "PRIMARY",
    "M",
    "ND",
    "NORM",
    "MOSAIC"
],
  "ImagingFrequency": 123.191,
  "InPlanePhaseEncodingDirectionDICOM": "COL",
  "InstitutionAddress": "Street_StreetNo_City_District_IR_ZIP",
  "InstitutionName": "NBML",
  "InstitutionalDepartmentName": "Department",
  "MRAcquisitionType": "2D",
  "MagneticFieldStrength": 3,
  "Manufacturer": "Siemens",
  "ManufacturersModelName": "Prisma",
  "Modality": "MR",
  "ParallelReductionFactorInPlane": 2,
  "PartialFourier": 1,
  "PatientPosition": "HFS",
  "PercentPhaseFOV": 100,
  "PhaseEncodingDirection": "j-",
  "PhaseEncodingSteps": 105,
  "PhaseOversampling": 0.5,
  "PhaseResolution": 1,
  "PixelBandwidth": 2465,
  "ProcedureStepDescription": "NBML_Project_P-96169-Ebrahiminiya",
  "ProtocolName": "ep2d_p2_Task_3.5_measurment:237",
  "PulseSequenceDetails": "%SiemensSeq%_ep2d_pace",
  "ReceiveCoilActiveElements": "HC1-7;NC1",
  "ReceiveCoilName": "HeadNeck_64",
  "ReconMatrixPE": 70,
  "RefLinesPE": 24,
  "RepetitionTime": 2,
  "SAR": 0.0908239,
  "ScanOptions": "FS",
  "ScanningSequence": "EP",
  "SequenceName": "_epfid2d1_70",
  "SequenceVariant": "SK_OSP",
  "SeriesDescription": "ep2d_p2_Task_3.5_measurment:237",
  "SeriesNumber": 8,
  "ShimSetting": [2595, -4469, -3211, 397, 38, 78, -86, 17],
  "SliceThickness": 3.5,
  "SliceTiming": [0.99, 0, 1.05, 0.06, 1.1075, 0.1175, 1.165, 0.175, 1.2225, 0.2325, 1.2825, 0.2925, 1.34, 0.35, 1.3975, 0.4075, 1.4575, 0.4675, 1.515, 0.525, 1.5725, 0.5825, 1.63, 0.64, 1.69, 0.7, 1.7475, 0.7575, 1.805, 0.815, 1.865, 0.875, 1.9225, 0.9325],
  "SoftwareVersions": "syngo_MR_E11",
  "SpacingBetweenSlices": 3.85,
  "StationName": "AWP66088",
  "TaskName": "categorySelectivity",
  "TotalReadoutTime": 0.0253573,
  "TxRefAmp": 220.126,
  "dcmmeta_affine": [
    [-3.5420758724212646, 0.07419600337743759, -0.005996745079755783, 124.1137924194336],
    [0.06906605511903763, 3.1813254356384277, -1.6926747560501099, -83.88861083984375],
    [0.027665480971336365, 1.5574017763137817, 3.457935333251953, -86.84864807128906],
    [0.0, 0.0, 0.0, 1.0]
],
  "dcmmeta_reorient_transform": [
    [0.0, -1.0, 0.0, 69.0],
    [1.0, 0.0, 0.0, 0.0],
    [0.0, 0.0, 1.0, 0.0],
    [0.0, 0.0, 0.0, 1.0]
],
  "dcmmeta_shape": [70, 70, 34, 237],
  "dcmmeta_slice_dim": 2,
  "dcmmeta_version": 0.6,
  "global": {
    "const": {
      "AccessionNumber": "M.BRZ",
      "AcquisitionMatrix": [70, 0, 0, 70],
      "AngioFlag": "N",
      "BitsAllocated": 16,
      "BitsStored": 12,
      "BodyPartExamined": "HEAD",
      "Columns": 420,
      "EchoNumbers": 1,
      "EchoTime": 30.0,
      "EchoTrainLength": 53,
      "FlipAngle": 90.0,
      "HighBit": 11,
      "ImageOrientationPatient": [0.99977947016852, -0.0194944503631, 0.00780880494023, 0.02094241924877, 0.89795476365129, -0.4395891917597],
      "ImagePositionPatient": [-762.08089490608, -680.26824756797, 288.31591458567],
      "ImageType": [
        "ORIGINAL",
        "PRIMARY",
        "M",
        "ND",
        "NORM",
        "MOSAIC"
],
      "ImagedNucleus": "1H",
      "ImagingFrequency": 123.191136,
      "InPlanePhaseEncodingDirection": "COL",
      "MRAcquisitionType": "2D",
      "MagneticFieldStrength": 3.0,
      "Manufacturer": "SIEMENS",
      "ManufacturerModelName": "Prisma",
      "Modality": "MR",
      "NumberOfAverages": 1.0,
      "NumberOfPhaseEncodingSteps": 105,
      "PercentPhaseFieldOfView": 100.0,
      "PercentSampling": 100.0,
      "PerformedProcedureStepStartTime": "120151.768000",
      "PhotometricInterpretation": "MONOCHROME2",
      "PixelBandwidth": 2465.0,
      "PixelRepresentation": 0,
      "PixelSpacing": [3.542857170105, 3.542857170105],
      "ProtocolName": "ep2d_p2_Task_3.5_measurment:237",
      "RepetitionTime": 2000.0,
      "Rows": 420,
      "SAR": 0.09082385061851,
      "SamplesPerPixel": 1,
      "ScanOptions": "FS",
      "ScanningSequence": "EP",
      "SequenceName": "*epfid2d1_70",
      "SequenceVariant": [
        "SK",
        "OSP"
],
      "SeriesDescription": "ep2d_p2_Task_3.5_measurment:237",
      "SeriesNumber": 8,
      "SeriesTime": "125547.239000",
      "SliceLocation": -41.315621194993,
      "SliceThickness": 3.5,
      "SmallestImagePixelValue": 0,
      "SoftwareVersions": "syngo MR E11",
      "SpacingBetweenSlices": 3.8499999673427,
      "SpecificCharacterSet": "ISO_IR 100",
      "StudyID": "1",
      "StudyTime": "120151.680000",
      "TransmitCoilName": "Body",
      "VariableFlipAngleFlag": "N",
      "WindowCenterWidthExplanation": "Algo1",
      "dBdt": 0.0},
    "slices": {}
  },
  "time": {
    "samples": {
      "AcquisitionNumber": [1, 2, 3, 4, 5, 6, 7, 8, 9, 10, 11, 12, 13, 14, 15, 16, 17, 18, 19, 20, 21, 22, 23, 24, 25, 26, 27, 28, 29, 30, 31, 32, 33, 34, 35, 36, 37, 38, 39, 40, 41, 42, 43, 44, 45, 46, 47, 48, 49, 50, 51, 52, 53, 54, 55, 56, 57, 58, 59, 60, 61, 62, 63, 64, 65, 66, 67, 68, 69, 70, 71, 72, 73, 74, 75, 76, 77, 78, 79, 80, 81, 82, 83, 84, 85, 86, 87, 88, 89, 90, 91, 92, 93, 94, 95, 96, 97, 98, 99, 100, 101, 102, 103, 104, 105, 106, 107, 108, 109, 110, 111, 112, 113, 114, 115, 116, 117, 118, 119, 120, 121, 122, 123, 124, 125, 126, 127, 128, 129, 130, 131, 132, 133, 134, 135, 136, 137, 138, 139, 140, 141, 142, 143, 144, 145, 146, 147, 148, 149, 150, 151, 152, 153, 154, 155, 156, 157, 158, 159, 160, 161, 162, 163, 164, 165, 166, 167, 168, 169, 170, 171, 172, 173, 174, 175, 176, 177, 178, 179, 180, 181, 182, 183, 184, 185, 186, 187, 188, 189, 190, 191, 192, 193, 194, 195, 196, 197, 198, 199, 200, 201, 202, 203, 204, 205, 206, 207, 208, 209, 210, 211, 212, 213, 214, 215, 216, 217, 218, 219, 220, 221, 222, 223, 224, 225, 226, 227, 228, 229, 230, 231, 232, 233, 234, 235, 236, 237],
      "AcquisitionTime": ["125457.555000", "125459.555000", "125501.555000", "125503.555000", "125505.555000", "125507.555000", "125509.555000", "125511.555000", "125513.555000", "125515.555000", "125517.555000", "125519.555000", "125521.555000", "125523.555000", "125525.555000", "125527.555000", "125529.555000", "125531.555000", "125533.555000", "125535.555000", "125537.555000", "125539.555000", "125541.555000", "125543.555000", "125545.555000", "125547.555000", "125549.555000", "125551.555000", "125553.555000", "125555.555000", "125557.555000", "125559.555000", "125601.555000", "125603.555000", "125605.555000", "125607.555000", "125609.555000", "125611.555000", "125613.555000", "125615.555000", "125617.555000", "125619.555000", "125621.555000", "125623.555000", "125625.555000", "125627.555000", "125629.555000", "125631.555000", "125633.555000", "125635.555000", "125637.555000", "125639.555000", "125641.555000", "125643.555000", "125645.555000", "125647.555000", "125649.555000", "125651.555000", "125653.555000", "125655.555000", "125657.555000", "125659.555000", "125701.555000", "125703.555000", "125705.555000", "125707.555000", "125709.555000", "125711.555000", "125713.555000", "125715.555000", "125717.555000", "125719.555000", "125721.555000", "125723.555000", "125725.555000", "125727.555000", "125729.555000", "125731.555000", "125733.555000", "125735.555000", "125737.555000", "125739.555000", "125741.555000", "125743.555000", "125745.555000", "125747.555000", "125749.555000", "125751.555000", "125753.555000", "125755.555000", "125757.555000", "125759.555000", "125801.555000", "125803.555000", "125805.555000", "125807.555000", "125809.555000", "125811.555000", "125813.555000", "125815.555000", "125817.555000", "125819.555000", "125821.555000", "125823.555000", "125825.555000", "125827.555000", "125829.555000", "125831.555000", "125833.555000", "125835.555000", "125837.555000", "125839.555000", "125841.555000", "125843.555000", "125845.555000", "125847.555000", "125849.555000", "125851.555000", "125853.555000", "125855.555000", "125857.555000", "125859.555000", "125901.555000", "125903.555000", "125905.555000", "125907.555000", "125909.555000", "125911.555000", "125913.555000", "125915.555000", "125917.555000", "125919.555000", "125921.555000", "125923.555000", "125925.555000", "125927.555000", "125929.555000", "125931.555000", "125933.555000", "125935.555000", "125937.555000", "125939.555000", "125941.555000", "125943.555000", "125945.555000", "125947.555000", "125949.555000", "125951.555000", "125953.555000", "125955.555000", "125957.555000", "125959.555000", "130001.555000", "130003.555000", "130005.555000", "130007.555000", "130009.555000", "130011.555000", "130013.555000", "130015.555000", "130017.555000", "130019.555000", "130021.555000", "130023.555000", "130025.555000", "130027.555000", "130029.555000", "130031.555000", "130033.555000", "130035.555000", "130037.555000", "130039.555000", "130041.555000", "130043.555000", "130045.555000", "130047.555000", "130049.555000", "130051.555000", "130053.555000", "130055.555000", "130057.555000", "130059.555000", "130101.555000", "130103.555000", "130105.555000", "130107.555000", "130109.555000", "130111.555000", "130113.555000", "130115.555000", "130117.555000", "130119.555000", "130121.555000", "130123.555000", "130125.555000", "130127.555000", "130129.555000", "130131.555000", "130133.555000", "130135.555000", "130137.555000", "130139.555000", "130141.555000", "130143.555000", "130145.555000", "130147.555000", "130149.555000", "130151.555000", "130153.555000", "130155.555000", "130157.555000", "130159.555000", "130201.555000", "130203.555000", "130205.555000", "130207.555000", "130209.555000", "130211.555000", "130213.555000", "130215.555000", "130217.555000", "130219.555000", "130221.555000", "130223.555000", "130225.555000", "130227.555000", "130229.555000", "130231.555000", "130233.555000", "130235.555000", "130237.555000", "130239.555000", "130241.555000", "130243.555000", "130245.555000", "130247.555000", "130249.555000"],
      "ContentTime": ["125547.242000", "125547.245000", "125547.248000", "125547.250000", "125547.252000", "125547.255000", "125547.257000", "125547.260000", "125547.263000", "125547.266000", "125547.268000", "125547.270000", "125547.273000", "125547.275000", "125547.278000", "125547.281000", "125547.284000", "125547.286000", "125547.289000", "125547.292000", "125547.294000", "125547.296000", "125547.299000", "125547.310000", "125627.237000", "125627.239000", "125627.242000", "125627.244000", "125627.247000", "125627.249000", "125627.252000", "125627.254000", "125627.256000", "125627.259000", "125627.262000", "125627.264000", "125627.267000", "125627.269000", "125627.272000", "125627.274000", "125627.277000", "125627.280000", "125627.283000", "125627.286000", "125707.237000", "125707.239000", "125707.242000", "125707.244000", "125707.247000", "125707.249000", "125707.251000", "125707.254000", "125707.256000", "125707.259000", "125707.262000", "125707.264000", "125707.267000", "125707.269000", "125707.272000", "125707.274000", "125707.277000", "125707.279000", "125707.281000", "125707.284000", "125747.236000", "125747.239000", "125747.242000", "125747.244000", "125747.247000", "125747.250000", "125747.252000", "125747.255000", "125747.257000", "125747.262000", "125747.264000", "125747.267000", "125747.270000", "125747.272000", "125747.275000", "125747.277000", "125747.280000", "125747.283000", "125747.285000", "125747.288000", "125827.237000", "125827.239000", "125827.242000", "125827.244000", "125827.247000", "125827.249000", "125827.251000", "125827.254000", "125827.256000", "125827.260000", "125827.263000", "125827.265000", "125827.267000", "125827.270000", "125827.272000", "125827.275000", "125827.278000", "125827.281000", "125827.284000", "125827.286000", "125907.237000", "125907.240000", "125907.242000", "125907.245000", "125907.247000", "125907.250000", "125907.252000", "125907.254000", "125907.257000", "125907.260000", "125907.262000", "125907.265000", "125907.267000", "125907.270000", "125907.272000", "125907.275000", "125907.277000", "125907.280000", "125907.282000", "125907.285000", "125947.236000", "125947.239000", "125947.242000", "125947.244000", "125947.247000", "125947.249000", "125947.252000", "125947.254000", "125947.257000", "125947.260000", "125947.262000", "125947.264000", "125947.267000", "125947.269000", "125947.272000", "125947.282000", "125947.285000", "125947.287000", "125947.290000", "125947.292000", "130027.243000", "130027.246000", "130027.254000", "130027.257000", "130027.260000", "130027.263000", "130027.265000", "130027.274000", "130027.276000", "130027.279000", "130027.282000", "130027.284000", "130027.287000", "130027.290000", "130027.292000", "130027.295000", "130027.297000", "130027.300000", "130027.303000", "130027.305000", "130107.237000", "130107.239000", "130107.242000", "130107.244000", "130107.247000", "130107.249000", "130107.252000", "130107.254000", "130107.257000", "130107.260000", "130107.262000", "130107.265000", "130107.267000", "130107.270000", "130107.272000", "130107.275000", "130107.278000", "130107.281000", "130107.284000", "130107.286000", "130147.237000", "130147.239000", "130147.242000", "130147.245000", "130147.247000", "130147.250000", "130147.252000", "130147.255000", "130147.258000", "130147.262000", "130147.264000", "130147.267000", "130147.280000", "130147.283000", "130147.286000", "130147.289000", "130147.291000", "130147.294000", "130147.297000", "130147.299000", "130207.237000", "130207.239000", "130207.242000", "130207.244000", "130207.257000", "130207.260000", "130207.262000", "130207.265000", "130207.267000", "130207.269000", "130247.237000", "130247.240000", "130247.243000", "130247.245000", "130247.248000", "130247.251000", "130247.253000", "130247.258000", "130247.261000", "130247.263000", "130247.266000", "130247.268000", "130247.271000", "130247.274000", "130247.278000", "130247.281000", "130247.284000", "130247.286000", "130247.289000", "130247.291000", "130251.296000", "130251.299000", "130251.301000"],
      "InstanceCreationTime": ["125547.242000", "125547.245000", "125547.248000", "125547.250000", "125547.252000", "125547.255000", "125547.257000", "125547.260000", "125547.263000", "125547.266000", "125547.268000", "125547.270000", "125547.273000", "125547.275000", "125547.278000", "125547.281000", "125547.284000", "125547.286000", "125547.289000", "125547.292000", "125547.294000", "125547.296000", "125547.299000", "125547.310000", "125627.237000", "125627.239000", "125627.242000", "125627.244000", "125627.247000", "125627.249000", "125627.252000", "125627.254000", "125627.256000", "125627.259000", "125627.262000", "125627.264000", "125627.267000", "125627.269000", "125627.272000", "125627.274000", "125627.277000", "125627.280000", "125627.283000", "125627.286000", "125707.237000", "125707.239000", "125707.242000", "125707.244000", "125707.247000", "125707.249000", "125707.251000", "125707.254000", "125707.256000", "125707.259000", "125707.262000", "125707.264000", "125707.267000", "125707.269000", "125707.272000", "125707.274000", "125707.277000", "125707.279000", "125707.281000", "125707.284000", "125747.236000", "125747.239000", "125747.242000", "125747.244000", "125747.247000", "125747.250000", "125747.252000", "125747.255000", "125747.257000", "125747.262000", "125747.264000", "125747.267000", "125747.270000", "125747.272000", "125747.275000", "125747.277000", "125747.280000", "125747.283000", "125747.285000", "125747.288000", "125827.237000", "125827.239000", "125827.242000", "125827.244000", "125827.247000", "125827.249000", "125827.251000", "125827.254000", "125827.256000", "125827.260000", "125827.263000", "125827.265000", "125827.267000", "125827.270000", "125827.272000", "125827.275000", "125827.278000", "125827.281000", "125827.284000", "125827.286000", "125907.237000", "125907.240000", "125907.242000", "125907.245000", "125907.247000", "125907.250000", "125907.252000", "125907.254000", "125907.257000", "125907.260000", "125907.262000", "125907.265000", "125907.267000", "125907.270000", "125907.272000", "125907.275000", "125907.277000", "125907.280000", "125907.282000", "125907.285000", "125947.236000", "125947.239000", "125947.242000", "125947.244000", "125947.247000", "125947.249000", "125947.252000", "125947.254000", "125947.257000", "125947.260000", "125947.262000", "125947.264000", "125947.267000", "125947.269000", "125947.272000", "125947.282000", "125947.285000", "125947.287000", "125947.290000", "125947.292000", "130027.243000", "130027.246000", "130027.254000", "130027.257000", "130027.260000", "130027.263000", "130027.265000", "130027.274000", "130027.276000", "130027.279000", "130027.282000", "130027.284000", "130027.287000", "130027.290000", "130027.292000", "130027.295000", "130027.297000", "130027.300000", "130027.303000", "130027.305000", "130107.237000", "130107.239000", "130107.242000", "130107.244000", "130107.247000", "130107.249000", "130107.252000", "130107.254000", "130107.257000", "130107.260000", "130107.262000", "130107.265000", "130107.267000", "130107.270000", "130107.272000", "130107.275000", "130107.278000", "130107.281000", "130107.284000", "130107.286000", "130147.237000", "130147.239000", "130147.242000", "130147.245000", "130147.247000", "130147.250000", "130147.252000", "130147.255000", "130147.258000", "130147.262000", "130147.264000", "130147.267000", "130147.280000", "130147.283000", "130147.286000", "130147.289000", "130147.291000", "130147.294000", "130147.297000", "130147.299000", "130207.237000", "130207.239000", "130207.242000", "130207.244000", "130207.257000", "130207.260000", "130207.262000", "130207.265000", "130207.267000", "130207.269000", "130247.237000", "130247.240000", "130247.243000", "130247.245000", "130247.248000", "130247.251000", "130247.253000", "130247.258000", "130247.261000", "130247.263000", "130247.266000", "130247.268000", "130247.271000", "130247.274000", "130247.278000", "130247.281000", "130247.284000", "130247.286000", "130247.289000", "130247.291000", "130251.296000", "130251.299000", "130251.301000"],
      "InstanceNumber": [1, 2, 3, 4, 5, 6, 7, 8, 9, 10, 11, 12, 13, 14, 15, 16, 17, 18, 19, 20, 21, 22, 23, 24, 25, 26, 27, 28, 29, 30, 31, 32, 33, 34, 35, 36, 37, 38, 39, 40, 41, 42, 43, 44, 45, 46, 47, 48, 49, 50, 51, 52, 53, 54, 55, 56, 57, 58, 59, 60, 61, 62, 63, 64, 65, 66, 67, 68, 69, 70, 71, 72, 73, 74, 75, 76, 77, 78, 79, 80, 81, 82, 83, 84, 85, 86, 87, 88, 89, 90, 91, 92, 93, 94, 95, 96, 97, 98, 99, 100, 101, 102, 103, 104, 105, 106, 107, 108, 109, 110, 111, 112, 113, 114, 115, 116, 117, 118, 119, 120, 121, 122, 123, 124, 125, 126, 127, 128, 129, 130, 131, 132, 133, 134, 135, 136, 137, 138, 139, 140, 141, 142, 143, 144, 145, 146, 147, 148, 149, 150, 151, 152, 153, 154, 155, 156, 157, 158, 159, 160, 161, 162, 163, 164, 165, 166, 167, 168, 169, 170, 171, 172, 173, 174, 175, 176, 177, 178, 179, 180, 181, 182, 183, 184, 185, 186, 187, 188, 189, 190, 191, 192, 193, 194, 195, 196, 197, 198, 199, 200, 201, 202, 203, 204, 205, 206, 207, 208, 209, 210, 211, 212, 213, 214, 215, 216, 217, 218, 219, 220, 221, 222, 223, 224, 225, 226, 227, 228, 229, 230, 231, 232, 233, 234, 235, 236, 237],
      "LargestImagePixelValue": [2130, 2036, 2156, 2350, 2634, 2357, 2026, 2356, 2532, 1973, 2241, 2500, 2061, 2847, 2453, 2191, 2879, 2375, 2086, 2740, 2008, 2737, 2371, 1939, 2695, 2395, 2011, 2009, 2722, 2375, 1965, 2697, 1888, 2628, 2198, 2050, 2747, 2170, 2693, 2388, 1844, 2547, 2145, 2394, 2372, 2193, 2240, 2526, 2136, 2335, 2482, 2216, 1946, 2460, 2485, 2309, 2119, 1996, 2217, 2473, 2088, 2779, 2343, 1924, 2375, 2391, 2028, 2144, 2281, 2126, 2781, 2486, 2374, 2065, 2067, 2625, 2289, 2314, 2441, 2318, 2115, 2024, 2705, 2310, 1938, 2119, 2495, 2071, 2064, 2596, 2408, 2381, 2184, 2029, 2805, 2413, 2219, 2118, 2231, 1976, 2112, 2902, 2293, 1913, 2540, 2393, 2095, 2081, 2632, 2373, 2392, 2022, 1941, 2015, 2429, 2441, 2512, 2522, 2418, 2357, 2386, 2482, 2220, 1964, 2005, 2130, 2658, 2389, 1994, 2597, 2297, 2211, 2027, 2770, 2354, 1989, 2725, 2387, 2012, 1947, 2660, 2367, 2055, 2052, 2072, 2265, 2003, 2163, 2004, 2655, 2431, 2488, 2317, 1991, 2018, 2056, 2610, 2219, 1958, 2183, 2528, 2168, 1806, 1906, 1978, 2722, 2173, 2077, 2600, 2336, 1929, 1849, 2344, 2487, 2374, 2181, 2104, 1960, 2065, 2650, 2215, 1918, 2441, 2380, 2180, 1905, 2054, 2748, 2336, 2307, 2105, 2632, 2320, 1904, 2058, 2529, 2376, 1970, 1919, 2446, 2397, 2294, 2248, 2039, 2290, 2569, 2327, 2093, 2097, 2142, 2534, 2343, 2192, 2084, 2106, 2596, 2283, 2196, 2050, 2138, 2088, 2698, 2349, 2384, 2225, 1973, 2121, 2065, 2067, 2018, 2479, 1934, 2041, 2416, 2262, 2035, 2091],
      "WindowCenter": [677.0, 676.0, 677.0, 678.0, 677.0, 676.0, 675.0, 677.0, 675.0, 674.0, 677.0, 677.0, 676.0, 676.0, 676.0, 676.0, 676.0, 676.0, 676.0, 678.0, 676.0, 677.0, 676.0, 674.0, 677.0, 677.0, 676.0, 676.0, 678.0, 677.0, 676.0, 676.0, 676.0, 676.0, 676.0, 675.0, 677.0, 675.0, 676.0, 676.0, 675.0, 676.0, 676.0, 676.0, 677.0, 677.0, 677.0, 677.0, 676.0, 676.0, 677.0, 677.0, 676.0, 677.0, 677.0, 676.0, 674.0, 676.0, 678.0, 679.0, 676.0, 676.0, 675.0, 674.0, 676.0, 676.0, 676.0, 677.0, 677.0, 676.0, 677.0, 677.0, 677.0, 676.0, 675.0, 678.0, 677.0, 677.0, 677.0, 676.0, 676.0, 676.0, 677.0, 675.0, 673.0, 676.0, 676.0, 676.0, 677.0, 677.0, 678.0, 677.0, 676.0, 675.0, 677.0, 676.0, 676.0, 676.0, 677.0, 675.0, 676.0, 677.0, 676.0, 675.0, 676.0, 675.0, 676.0, 676.0, 677.0, 677.0, 678.0, 676.0, 675.0, 676.0, 677.0, 678.0, 678.0, 677.0, 676.0, 677.0, 677.0, 677.0, 676.0, 674.0, 675.0, 676.0, 678.0, 675.0, 674.0, 676.0, 678.0, 678.0, 677.0, 678.0, 676.0, 675.0, 676.0, 675.0, 676.0, 674.0, 677.0, 676.0, 675.0, 675.0, 677.0, 677.0, 676.0, 676.0, 675.0, 678.0, 677.0, 676.0, 677.0, 674.0, 676.0, 676.0, 676.0, 676.0, 674.0, 674.0, 675.0, 674.0, 674.0, 676.0, 678.0, 678.0, 676.0, 675.0, 675.0, 676.0, 675.0, 674.0, 676.0, 677.0, 677.0, 677.0, 677.0, 675.0, 676.0, 677.0, 676.0, 675.0, 677.0, 677.0, 676.0, 675.0, 676.0, 677.0, 676.0, 676.0, 677.0, 677.0, 675.0, 674.0, 675.0, 677.0, 675.0, 675.0, 674.0, 677.0, 678.0, 677.0, 676.0, 675.0, 675.0, 676.0, 676.0, 674.0, 675.0, 676.0, 676.0, 676.0, 675.0, 676.0, 676.0, 678.0, 676.0, 676.0, 675.0, 677.0, 676.0, 676.0, 675.0, 676.0, 675.0, 674.0, 675.0, 676.0, 675.0, 676.0, 676.0, 674.0, 676.0, 678.0, 676.0, 675.0, 674.0],
      "WindowWidth": [1497.0, 1494.0, 1497.0, 1500.0, 1498.0, 1495.0, 1492.0, 1496.0, 1492.0, 1488.0, 1496.0, 1499.0, 1495.0, 1495.0, 1495.0, 1494.0, 1495.0, 1495.0, 1494.0, 1499.0, 1494.0, 1498.0, 1495.0, 1490.0, 1499.0, 1498.0, 1495.0, 1493.0, 1500.0, 1498.0, 1494.0, 1495.0, 1494.0, 1496.0, 1494.0, 1492.0, 1496.0, 1490.0, 1494.0, 1494.0, 1490.0, 1495.0, 1495.0, 1496.0, 1499.0, 1498.0, 1498.0, 1497.0, 1494.0, 1495.0, 1498.0, 1497.0, 1495.0, 1498.0, 1496.0, 1494.0, 1489.0, 1492.0, 1501.0, 1502.0, 1493.0, 1495.0, 1490.0, 1488.0, 1495.0, 1495.0, 1494.0, 1496.0, 1498.0, 1495.0, 1498.0, 1496.0, 1498.0, 1493.0, 1492.0, 1500.0, 1497.0, 1498.0, 1498.0, 1495.0, 1494.0, 1494.0, 1498.0, 1492.0, 1486.0, 1494.0, 1496.0, 1495.0, 1496.0, 1497.0, 1499.0, 1497.0, 1495.0, 1492.0, 1498.0, 1494.0, 1493.0, 1493.0, 1496.0, 1492.0, 1495.0, 1497.0, 1493.0, 1489.0, 1495.0, 1492.0, 1495.0, 1493.0, 1498.0, 1497.0, 1498.0, 1494.0, 1492.0, 1495.0, 1497.0, 1500.0, 1498.0, 1497.0, 1495.0, 1497.0, 1497.0, 1497.0, 1493.0, 1488.0, 1491.0, 1495.0, 1499.0, 1491.0, 1488.0, 1496.0, 1501.0, 1500.0, 1498.0, 1500.0, 1494.0, 1491.0, 1494.0, 1492.0, 1492.0, 1489.0, 1496.0, 1494.0, 1490.0, 1491.0, 1496.0, 1498.0, 1493.0, 1492.0, 1492.0, 1500.0, 1497.0, 1494.0, 1495.0, 1490.0, 1494.0, 1493.0, 1493.0, 1492.0, 1489.0, 1489.0, 1491.0, 1489.0, 1488.0, 1495.0, 1499.0, 1501.0, 1493.0, 1490.0, 1491.0, 1493.0, 1491.0, 1487.0, 1495.0, 1496.0, 1497.0, 1496.0, 1495.0, 1491.0, 1492.0, 1497.0, 1492.0, 1490.0, 1497.0, 1497.0, 1494.0, 1490.0, 1494.0, 1497.0, 1495.0, 1493.0, 1496.0, 1497.0, 1490.0, 1486.0, 1490.0, 1498.0, 1492.0, 1490.0, 1487.0, 1497.0, 1498.0, 1496.0, 1493.0, 1492.0, 1493.0, 1494.0, 1492.0, 1489.0, 1490.0, 1492.0, 1494.0, 1493.0, 1492.0, 1495.0, 1494.0, 1499.0, 1493.0, 1493.0, 1492.0, 1495.0, 1492.0, 1493.0, 1492.0, 1494.0, 1492.0, 1488.0, 1491.0, 1494.0, 1492.0, 1492.0, 1493.0, 1489.0, 1495.0, 1499.0, 1494.0, 1489.0, 1487.0]
    },
    "slices": {}
  }
}