{
  "AcquisitionMatrixPE": 70,
  "AcquisitionNumber": 1,
  "AcquisitionTime": "09:18:24.567500",
  "BandwidthPerPixelPhaseEncode": 38.873,
  "BaseResolution": 70,
  "BodyPartExamined": "HEAD",
  "ConsistencyInfo": "N4_VE11B_LATEST_20150530",
  "ConversionSoftware": "dcm2niix",
  "ConversionSoftwareVersion": "v1.0.20190410  GCC6.3.0",
  "DerivedVendorReportedEchoSpacing": 0.000489996,
  "DeviceSerialNumber": "66088",
  "DwellTime": 2.9e-06,
  "EchoTime": 0.03,
  "EchoTrainLength": 53,
  "EffectiveEchoSpacing": 0.000367497,
  "FlipAngle": 90,
  "ImageOrientationPatientDICOM": [0.998896, 0.0390918, -0.0260623, -0.0453596, 0.946965, -0.318118],
  "ImageType": [
    "ORIGINAL",
    "PRIMARY",
    "M",
    "ND",
    "NORM",
    "MOSAIC"
],
  "ImagingFrequency": 123.191,
  "InPlanePhaseEncodingDirectionDICOM": "COL",
  "InstitutionAddress": "Street_StreetNo_City_District_IR_ZIP",
  "InstitutionName": "Hospital",
  "InstitutionalDepartmentName": "Department",
  "MRAcquisitionType": "2D",
  "MagneticFieldStrength": 3,
  "Manufacturer": "Siemens",
  "ManufacturersModelName": "Prisma",
  "Modality": "MR",
  "ParallelReductionFactorInPlane": 2,
  "PartialFourier": 1,
  "PatientPosition": "HFS",
  "PercentPhaseFOV": 100,
  "PhaseEncodingDirection": "j-",
  "PhaseEncodingSteps": 105,
  "PhaseOversampling": 0.5,
  "PhaseResolution": 1,
  "PixelBandwidth": 2465,
  "ProcedureStepDescription": "NBML_Project_P-95001-Shirvaliloo",
  "ProtocolName": "ep2d_p2_Task_3.5_measurment:237",
  "PulseSequenceDetails": "%SiemensSeq%_ep2d_pace",
  "ReceiveCoilActiveElements": "HC1-7;NC1",
  "ReceiveCoilName": "HeadNeck_64",
  "ReconMatrixPE": 70,
  "RefLinesPE": 24,
  "RepetitionTime": 2,
  "SAR": 0.0878166,
  "ScanOptions": "FS",
  "ScanningSequence": "EP",
  "SequenceName": "_epfid2d1_70",
  "SequenceVariant": "SK_OSP",
  "SeriesDescription": "ep2d_p2_Task_3.5_measurment:237",
  "SeriesNumber": 6,
  "ShimSetting": [2613, -4501, -3227, 516, 63, -2, 7, -24],
  "SliceThickness": 3.5,
  "SliceTiming": [0.99, 0, 1.05, 0.06, 1.1075, 0.1175, 1.165, 0.175, 1.225, 0.235, 1.2825, 0.2925, 1.34, 0.35, 1.3975, 0.4075, 1.4575, 0.4675, 1.515, 0.525, 1.5725, 0.5825, 1.6325, 0.6425, 1.69, 0.7, 1.7475, 0.7575, 1.8075, 0.8175, 1.865, 0.875, 1.9225, 0.9325],
  "SoftwareVersions": "syngo_MR_E11",
  "SpacingBetweenSlices": 3.85,
  "StationName": "AWP66088",
  "TaskName": "categorySelectivity",
  "TotalReadoutTime": 0.0253573,
  "TxRefAmp": 234.708,
  "dcmmeta_affine": [
    [-3.538944721221924, -0.16070258617401123, -0.047140587121248245, 129.1709442138672],
    [-0.1384967565536499, 3.3549628257751465, -1.2279541492462158, -90.27825927734375],
    [-0.09233514964580536, 1.1270475387573242, 3.6486170291900635, -80.58671569824219],
    [0.0, 0.0, 0.0, 1.0]
],
  "dcmmeta_reorient_transform": [
    [0.0, -1.0, 0.0, 69.0],
    [1.0, 0.0, 0.0, 0.0],
    [0.0, 0.0, 1.0, 0.0],
    [0.0, 0.0, 0.0, 1.0]
],
  "dcmmeta_shape": [70, 70, 34, 237],
  "dcmmeta_slice_dim": 2,
  "dcmmeta_version": 0.6,
  "global": {
    "const": {
      "AccessionNumber": "MB",
      "AcquisitionMatrix": [70, 0, 0, 70],
      "AngioFlag": "N",
      "BitsAllocated": 16,
      "BitsStored": 12,
      "BodyPartExamined": "HEAD",
      "Columns": 420,
      "EchoNumbers": 1,
      "EchoTime": 30.0,
      "EchoTrainLength": 53,
      "FlipAngle": 90.0,
      "HighBit": 11,
      "ImageOrientationPatient": [0.99889568197765, 0.03909182723234, -0.0260623400722, -0.0453596015722, 0.94696530059363, -0.3181182579118],
      "ImagePositionPatient": [-709.27483838186, -752.56959536893, 210.57153416686],
      "ImageType": [
        "ORIGINAL",
        "PRIMARY",
        "M",
        "ND",
        "NORM",
        "MOSAIC"
],
      "ImagedNucleus": "1H",
      "ImagingFrequency": 123.191174,
      "InPlanePhaseEncodingDirection": "COL",
      "MRAcquisitionType": "2D",
      "MagneticFieldStrength": 3.0,
      "Manufacturer": "SIEMENS",
      "ManufacturerModelName": "Prisma",
      "Modality": "MR",
      "NumberOfAverages": 1.0,
      "NumberOfPhaseEncodingSteps": 105,
      "PercentPhaseFieldOfView": 100.0,
      "PercentSampling": 100.0,
      "PerformedProcedureStepStartTime": "084313.184000",
      "PhotometricInterpretation": "MONOCHROME2",
      "PixelBandwidth": 2465.0,
      "PixelRepresentation": 0,
      "PixelSpacing": [3.542857170105, 3.542857170105],
      "ProtocolName": "ep2d_p2_Task_3.5_measurment:237",
      "RepetitionTime": 2000.0,
      "Rows": 420,
      "SAR": 0.0878165488485,
      "SamplesPerPixel": 1,
      "ScanOptions": "FS",
      "ScanningSequence": "EP",
      "SequenceName": "*epfid2d1_70",
      "SequenceVariant": [
        "SK",
        "OSP"
],
      "SeriesDescription": "ep2d_p2_Task_3.5_measurment:237",
      "SeriesNumber": 6,
      "SeriesTime": "091907.513000",
      "SliceLocation": -49.158884188097,
      "SliceThickness": 3.5,
      "SmallestImagePixelValue": 0,
      "SoftwareVersions": "syngo MR E11",
      "SpacingBetweenSlices": 3.8500000907346,
      "SpecificCharacterSet": "ISO_IR 100",
      "StudyID": "1",
      "StudyTime": "084313.040000",
      "TransmitCoilName": "Body",
      "VariableFlipAngleFlag": "N",
      "WindowCenterWidthExplanation": "Algo1",
      "dBdt": 0.0},
    "slices": {}
  },
  "time": {
    "samples": {
      "AcquisitionNumber": [1, 2, 3, 4, 5, 6, 7, 8, 9, 10, 11, 12, 13, 14, 15, 16, 17, 18, 19, 20, 21, 22, 23, 24, 25, 26, 27, 28, 29, 30, 31, 32, 33, 34, 35, 36, 37, 38, 39, 40, 41, 42, 43, 44, 45, 46, 47, 48, 49, 50, 51, 52, 53, 54, 55, 56, 57, 58, 59, 60, 61, 62, 63, 64, 65, 66, 67, 68, 69, 70, 71, 72, 73, 74, 75, 76, 77, 78, 79, 80, 81, 82, 83, 84, 85, 86, 87, 88, 89, 90, 91, 92, 93, 94, 95, 96, 97, 98, 99, 100, 101, 102, 103, 104, 105, 106, 107, 108, 109, 110, 111, 112, 113, 114, 115, 116, 117, 118, 119, 120, 121, 122, 123, 124, 125, 126, 127, 128, 129, 130, 131, 132, 133, 134, 135, 136, 137, 138, 139, 140, 141, 142, 143, 144, 145, 146, 147, 148, 149, 150, 151, 152, 153, 154, 155, 156, 157, 158, 159, 160, 161, 162, 163, 164, 165, 166, 167, 168, 169, 170, 171, 172, 173, 174, 175, 176, 177, 178, 179, 180, 181, 182, 183, 184, 185, 186, 187, 188, 189, 190, 191, 192, 193, 194, 195, 196, 197, 198, 199, 200, 201, 202, 203, 204, 205, 206, 207, 208, 209, 210, 211, 212, 213, 214, 215, 216, 217, 218, 219, 220, 221, 222, 223, 224, 225, 226, 227, 228, 229, 230, 231, 232, 233, 234, 235, 236, 237],
      "AcquisitionTime": ["091824.567500", "091826.567500", "091828.567500", "091830.567500", "091832.567500", "091834.567500", "091836.567500", "091838.567500", "091840.567500", "091842.567500", "091844.567500", "091846.567500", "091848.567500", "091850.567500", "091852.567500", "091854.567500", "091856.567500", "091858.567500", "091900.567500", "091902.567500", "091904.567500", "091906.567500", "091908.567500", "091910.567500", "091912.567500", "091914.567500", "091916.567500", "091918.567500", "091920.567500", "091922.567500", "091924.567500", "091926.567500", "091928.567500", "091930.567500", "091932.567500", "091934.567500", "091936.567500", "091938.567500", "091940.567500", "091942.567500", "091944.567500", "091946.567500", "091948.567500", "091950.567500", "091952.567500", "091954.567500", "091956.567500", "091958.567500", "092000.567500", "092002.567500", "092004.567500", "092006.567500", "092008.567500", "092010.567500", "092012.567500", "092014.567500", "092016.567500", "092018.567500", "092020.567500", "092022.567500", "092024.567500", "092026.567500", "092028.567500", "092030.567500", "092032.567500", "092034.567500", "092036.567500", "092038.567500", "092040.567500", "092042.567500", "092044.567500", "092046.567500", "092048.567500", "092050.567500", "092052.567500", "092054.567500", "092056.567500", "092058.567500", "092100.567500", "092102.567500", "092104.567500", "092106.567500", "092108.567500", "092110.567500", "092112.567500", "092114.567500", "092116.567500", "092118.567500", "092120.567500", "092122.567500", "092124.567500", "092126.567500", "092128.567500", "092130.567500", "092132.567500", "092134.567500", "092136.567500", "092138.567500", "092140.567500", "092142.567500", "092144.567500", "092146.567500", "092148.567500", "092150.567500", "092152.567500", "092154.567500", "092156.567500", "092158.567500", "092200.567500", "092202.567500", "092204.567500", "092206.567500", "092208.567500", "092210.567500", "092212.567500", "092214.567500", "092216.567500", "092218.567500", "092220.567500", "092222.567500", "092224.567500", "092226.567500", "092228.567500", "092230.567500", "092232.567500", "092234.567500", "092236.567500", "092238.567500", "092240.567500", "092242.567500", "092244.567500", "092246.567500", "092248.567500", "092250.567500", "092252.567500", "092254.567500", "092256.567500", "092258.567500", "092300.567500", "092302.567500", "092304.567500", "092306.567500", "092308.567500", "092310.567500", "092312.567500", "092314.567500", "092316.567500", "092318.567500", "092320.567500", "092322.567500", "092324.567500", "092326.567500", "092328.567500", "092330.567500", "092332.567500", "092334.567500", "092336.567500", "092338.567500", "092340.567500", "092342.567500", "092344.567500", "092346.567500", "092348.567500", "092350.567500", "092352.567500", "092354.567500", "092356.567500", "092358.567500", "092400.567500", "092402.567500", "092404.567500", "092406.567500", "092408.567500", "092410.567500", "092412.567500", "092414.567500", "092416.567500", "092418.567500", "092420.567500", "092422.567500", "092424.567500", "092426.567500", "092428.567500", "092430.567500", "092432.567500", "092434.567500", "092436.567500", "092438.567500", "092440.567500", "092442.567500", "092444.567500", "092446.567500", "092448.567500", "092450.567500", "092452.567500", "092454.567500", "092456.567500", "092458.567500", "092500.567500", "092502.567500", "092504.567500", "092506.567500", "092508.567500", "092510.567500", "092512.567500", "092514.567500", "092516.567500", "092518.567500", "092520.567500", "092522.567500", "092524.567500", "092526.567500", "092528.567500", "092530.567500", "092532.567500", "092534.567500", "092536.567500", "092538.567500", "092540.567500", "092542.567500", "092544.567500", "092546.567500", "092548.567500", "092550.567500", "092552.567500", "092554.567500", "092556.567500", "092558.567500", "092600.567500", "092602.567500", "092604.567500", "092606.567500", "092608.567500", "092610.567500", "092612.567500", "092614.567500", "092616.567500"],
      "ContentTime": ["091907.517000", "091907.534000", "091907.536000", "091907.539000", "091907.541000", "091907.543000", "091907.546000", "091907.548000", "091907.551000", "091907.553000", "091907.555000", "091907.558000", "091907.560000", "091907.563000", "091907.565000", "091907.568000", "091907.571000", "091907.574000", "091907.576000", "091907.579000", "091907.581000", "091947.512000", "091947.515000", "091947.518000", "091947.520000", "091947.523000", "091947.526000", "091947.528000", "091947.531000", "091947.533000", "091947.536000", "091947.539000", "091947.541000", "091947.544000", "091947.546000", "091947.549000", "091947.551000", "091947.554000", "091947.557000", "091947.560000", "091947.562000", "092027.510000", "092027.513000", "092027.516000", "092027.518000", "092027.521000", "092027.523000", "092027.526000", "092027.528000", "092027.530000", "092027.533000", "092027.539000", "092027.542000", "092027.544000", "092027.547000", "092027.549000", "092027.552000", "092027.554000", "092027.556000", "092027.559000", "092027.561000", "092107.512000", "092107.514000", "092107.517000", "092107.519000", "092107.521000", "092107.524000", "092107.526000", "092107.529000", "092107.531000", "092107.533000", "092107.536000", "092107.538000", "092107.540000", "092107.543000", "092107.545000", "092107.548000", "092107.550000", "092107.552000", "092107.555000", "092107.557000", "092147.511000", "092147.514000", "092147.517000", "092147.519000", "092147.521000", "092147.524000", "092147.526000", "092147.529000", "092147.531000", "092147.533000", "092147.543000", "092147.546000", "092147.548000", "092147.551000", "092147.553000", "092147.555000", "092147.558000", "092147.560000", "092147.563000", "092147.565000", "092227.511000", "092227.514000", "092227.517000", "092227.519000", "092227.522000", "092227.524000", "092227.527000", "092227.529000", "092227.532000", "092227.534000", "092227.537000", "092227.540000", "092227.542000", "092227.545000", "092227.547000", "092227.550000", "092227.553000", "092227.555000", "092227.558000", "092227.560000", "092307.512000", "092307.514000", "092307.517000", "092307.520000", "092307.522000", "092307.525000", "092307.527000", "092307.530000", "092307.532000", "092307.535000", "092307.538000", "092307.541000", "092307.543000", "092307.546000", "092307.549000", "092307.552000", "092307.554000", "092307.557000", "092307.559000", "092307.562000", "092347.512000", "092347.515000", "092347.517000", "092347.520000", "092347.522000", "092347.525000", "092347.527000", "092347.530000", "092347.533000", "092347.535000", "092347.538000", "092347.540000", "092347.543000", "092347.545000", "092347.548000", "092347.550000", "092347.571000", "092347.573000", "092347.576000", "092347.579000", "092427.512000", "092427.514000", "092427.517000", "092427.519000", "092427.522000", "092427.524000", "092427.526000", "092427.529000", "092427.531000", "092427.534000", "092427.536000", "092427.539000", "092427.543000", "092427.545000", "092427.548000", "092427.550000", "092427.553000", "092427.556000", "092427.558000", "092427.561000", "092507.510000", "092507.513000", "092507.516000", "092507.518000", "092507.520000", "092507.523000", "092507.525000", "092507.527000", "092507.530000", "092507.532000", "092507.535000", "092507.537000", "092507.539000", "092507.542000", "092507.544000", "092507.547000", "092507.549000", "092507.551000", "092507.554000", "092507.556000", "092527.512000", "092527.514000", "092527.517000", "092527.520000", "092527.522000", "092527.525000", "092527.527000", "092527.530000", "092527.532000", "092527.535000", "092607.512000", "092607.514000", "092607.517000", "092607.520000", "092607.523000", "092607.525000", "092607.528000", "092607.530000", "092607.533000", "092607.535000", "092607.538000", "092607.540000", "092607.543000", "092607.546000", "092607.548000", "092607.551000", "092607.553000", "092607.556000", "092607.558000", "092607.561000", "092618.302000", "092618.306000", "092618.309000", "092618.312000", "092618.316000", "092618.319000"],
      "InstanceCreationTime": ["091907.517000", "091907.534000", "091907.536000", "091907.539000", "091907.541000", "091907.543000", "091907.546000", "091907.548000", "091907.551000", "091907.553000", "091907.555000", "091907.558000", "091907.560000", "091907.563000", "091907.565000", "091907.568000", "091907.571000", "091907.574000", "091907.576000", "091907.579000", "091907.581000", "091947.512000", "091947.515000", "091947.518000", "091947.520000", "091947.523000", "091947.526000", "091947.528000", "091947.531000", "091947.533000", "091947.536000", "091947.539000", "091947.541000", "091947.544000", "091947.546000", "091947.549000", "091947.551000", "091947.554000", "091947.557000", "091947.560000", "091947.562000", "092027.510000", "092027.513000", "092027.516000", "092027.518000", "092027.521000", "092027.523000", "092027.526000", "092027.528000", "092027.530000", "092027.533000", "092027.539000", "092027.542000", "092027.544000", "092027.547000", "092027.549000", "092027.552000", "092027.554000", "092027.556000", "092027.559000", "092027.561000", "092107.512000", "092107.514000", "092107.517000", "092107.519000", "092107.521000", "092107.524000", "092107.526000", "092107.529000", "092107.531000", "092107.533000", "092107.536000", "092107.538000", "092107.540000", "092107.543000", "092107.545000", "092107.548000", "092107.550000", "092107.552000", "092107.555000", "092107.557000", "092147.511000", "092147.514000", "092147.517000", "092147.519000", "092147.521000", "092147.524000", "092147.526000", "092147.529000", "092147.531000", "092147.533000", "092147.543000", "092147.546000", "092147.548000", "092147.551000", "092147.553000", "092147.555000", "092147.558000", "092147.560000", "092147.563000", "092147.565000", "092227.511000", "092227.514000", "092227.517000", "092227.519000", "092227.522000", "092227.524000", "092227.527000", "092227.529000", "092227.532000", "092227.534000", "092227.537000", "092227.540000", "092227.542000", "092227.545000", "092227.547000", "092227.550000", "092227.553000", "092227.555000", "092227.558000", "092227.560000", "092307.512000", "092307.514000", "092307.517000", "092307.520000", "092307.522000", "092307.525000", "092307.527000", "092307.530000", "092307.532000", "092307.535000", "092307.538000", "092307.541000", "092307.543000", "092307.546000", "092307.549000", "092307.552000", "092307.554000", "092307.557000", "092307.559000", "092307.562000", "092347.512000", "092347.515000", "092347.517000", "092347.520000", "092347.522000", "092347.525000", "092347.527000", "092347.530000", "092347.533000", "092347.535000", "092347.538000", "092347.540000", "092347.543000", "092347.545000", "092347.548000", "092347.550000", "092347.571000", "092347.573000", "092347.576000", "092347.579000", "092427.512000", "092427.514000", "092427.517000", "092427.519000", "092427.522000", "092427.524000", "092427.526000", "092427.529000", "092427.531000", "092427.534000", "092427.536000", "092427.539000", "092427.543000", "092427.545000", "092427.548000", "092427.550000", "092427.553000", "092427.556000", "092427.558000", "092427.561000", "092507.510000", "092507.513000", "092507.516000", "092507.518000", "092507.520000", "092507.523000", "092507.525000", "092507.527000", "092507.530000", "092507.532000", "092507.535000", "092507.537000", "092507.539000", "092507.542000", "092507.544000", "092507.547000", "092507.549000", "092507.551000", "092507.554000", "092507.556000", "092527.512000", "092527.514000", "092527.517000", "092527.520000", "092527.522000", "092527.525000", "092527.527000", "092527.530000", "092527.532000", "092527.535000", "092607.512000", "092607.514000", "092607.517000", "092607.520000", "092607.523000", "092607.525000", "092607.528000", "092607.530000", "092607.533000", "092607.535000", "092607.538000", "092607.540000", "092607.543000", "092607.546000", "092607.548000", "092607.551000", "092607.553000", "092607.556000", "092607.558000", "092607.561000", "092618.302000", "092618.306000", "092618.309000", "092618.312000", "092618.316000", "092618.319000"],
      "InstanceNumber": [1, 2, 3, 4, 5, 6, 7, 8, 9, 10, 11, 12, 13, 14, 15, 16, 17, 18, 19, 20, 21, 22, 23, 24, 25, 26, 27, 28, 29, 30, 31, 32, 33, 34, 35, 36, 37, 38, 39, 40, 41, 42, 43, 44, 45, 46, 47, 48, 49, 50, 51, 52, 53, 54, 55, 56, 57, 58, 59, 60, 61, 62, 63, 64, 65, 66, 67, 68, 69, 70, 71, 72, 73, 74, 75, 76, 77, 78, 79, 80, 81, 82, 83, 84, 85, 86, 87, 88, 89, 90, 91, 92, 93, 94, 95, 96, 97, 98, 99, 100, 101, 102, 103, 104, 105, 106, 107, 108, 109, 110, 111, 112, 113, 114, 115, 116, 117, 118, 119, 120, 121, 122, 123, 124, 125, 126, 127, 128, 129, 130, 131, 132, 133, 134, 135, 136, 137, 138, 139, 140, 141, 142, 143, 144, 145, 146, 147, 148, 149, 150, 151, 152, 153, 154, 155, 156, 157, 158, 159, 160, 161, 162, 163, 164, 165, 166, 167, 168, 169, 170, 171, 172, 173, 174, 175, 176, 177, 178, 179, 180, 181, 182, 183, 184, 185, 186, 187, 188, 189, 190, 191, 192, 193, 194, 195, 196, 197, 198, 199, 200, 201, 202, 203, 204, 205, 206, 207, 208, 209, 210, 211, 212, 213, 214, 215, 216, 217, 218, 219, 220, 221, 222, 223, 224, 225, 226, 227, 228, 229, 230, 231, 232, 233, 234, 235, 236, 237],
      "LargestImagePixelValue": [2221, 1892, 2401, 2149, 2377, 2359, 1837, 2522, 1820, 2420, 2417, 2260, 2822, 2048, 2572, 2119, 2076, 2587, 1831, 2406, 1854, 2354, 2077, 2344, 2409, 1790, 2446, 1845, 2400, 2371, 1706, 2371, 1973, 2388, 2399, 1827, 2507, 1899, 2371, 1816, 2411, 1864, 2435, 1926, 2449, 2209, 1728, 2319, 2008, 2204, 2508, 1721, 2361, 1887, 2162, 2629, 2118, 2395, 2237, 2446, 1871, 2300, 2099, 2451, 2086, 2487, 1650, 2452, 1754, 2188, 2571, 1848, 2466, 2537, 1720, 1996, 1900, 2171, 1736, 2377, 2055, 2118, 2277, 1877, 2412, 2326, 1738, 2477, 1670, 2363, 2181, 2161, 1897, 2641, 2325, 1940, 2455, 1962, 2392, 2218, 2639, 1888, 1944, 2128, 1841, 2236, 2126, 1836, 2408, 1832, 2326, 1778, 2604, 1853, 2416, 1713, 2458, 1714, 2564, 1883, 2643, 2148, 1894, 2833, 2082, 2569, 1792, 1733, 2582, 1941, 2396, 1689, 2337, 1867, 2179, 2126, 2394, 2052, 2330, 2150, 1994, 2627, 1851, 2417, 2210, 1730, 2465, 1774, 2585, 1964, 2350, 2288, 1691, 2165, 2381, 1935, 2516, 1805, 2387, 1722, 2399, 1657, 2575, 2224, 1780, 2070, 2239, 1793, 2045, 2235, 1599, 2220, 1700, 2507, 2033, 2501, 1840, 2199, 1652, 2199, 1923, 1948, 2155, 2315, 2053, 1923, 2085, 1638, 2421, 2023, 2385, 1830, 2189, 1911, 2265, 2438, 1764, 1835, 2417, 2354, 1937, 1876, 2383, 2182, 1896, 2499, 2134, 1909, 1734, 2210, 1936, 2414, 1593, 2260, 1685, 2283, 1730, 2771, 2006, 2380, 1886, 1941, 2433, 1876, 2358, 1728, 1849, 2578, 2290, 1707, 2647, 1972, 1732, 2123, 1915, 2174, 2130],
      "WindowCenter": [686.0, 685.0, 687.0, 688.0, 688.0, 688.0, 687.0, 688.0, 686.0, 688.0, 688.0, 687.0, 689.0, 687.0, 689.0, 687.0, 687.0, 689.0, 685.0, 688.0, 688.0, 688.0, 687.0, 687.0, 686.0, 687.0, 688.0, 686.0, 687.0, 689.0, 686.0, 688.0, 686.0, 688.0, 688.0, 687.0, 690.0, 687.0, 687.0, 685.0, 687.0, 686.0, 688.0, 686.0, 687.0, 686.0, 684.0, 688.0, 688.0, 688.0, 687.0, 685.0, 686.0, 686.0, 687.0, 688.0, 688.0, 687.0, 686.0, 687.0, 686.0, 686.0, 687.0, 688.0, 686.0, 686.0, 686.0, 687.0, 686.0, 689.0, 688.0, 686.0, 687.0, 686.0, 684.0, 688.0, 686.0, 687.0, 685.0, 686.0, 685.0, 687.0, 687.0, 685.0, 686.0, 687.0, 685.0, 687.0, 684.0, 687.0, 688.0, 688.0, 688.0, 687.0, 685.0, 686.0, 687.0, 686.0, 687.0, 686.0, 688.0, 686.0, 687.0, 685.0, 687.0, 688.0, 685.0, 685.0, 686.0, 686.0, 688.0, 685.0, 688.0, 685.0, 686.0, 685.0, 687.0, 685.0, 686.0, 687.0, 687.0, 687.0, 686.0, 687.0, 686.0, 687.0, 686.0, 685.0, 688.0, 686.0, 687.0, 686.0, 687.0, 686.0, 687.0, 686.0, 687.0, 686.0, 686.0, 687.0, 687.0, 688.0, 686.0, 687.0, 687.0, 684.0, 687.0, 685.0, 687.0, 686.0, 687.0, 686.0, 686.0, 688.0, 688.0, 686.0, 687.0, 685.0, 686.0, 685.0, 687.0, 686.0, 688.0, 686.0, 685.0, 688.0, 685.0, 684.0, 685.0, 685.0, 685.0, 686.0, 686.0, 688.0, 686.0, 686.0, 685.0, 685.0, 685.0, 686.0, 686.0, 686.0, 686.0, 686.0, 685.0, 684.0, 685.0, 684.0, 686.0, 685.0, 686.0, 685.0, 686.0, 686.0, 686.0, 686.0, 685.0, 687.0, 687.0, 686.0, 686.0, 686.0, 686.0, 687.0, 686.0, 687.0, 686.0, 684.0, 685.0, 687.0, 686.0, 686.0, 683.0, 686.0, 684.0, 687.0, 684.0, 688.0, 686.0, 686.0, 686.0, 686.0, 686.0, 685.0, 685.0, 685.0, 686.0, 688.0, 686.0, 683.0, 687.0, 685.0, 687.0, 688.0, 685.0, 684.0, 685.0],
      "WindowWidth": [1504.0, 1502.0, 1508.0, 1510.0, 1508.0, 1509.0, 1506.0, 1511.0, 1504.0, 1509.0, 1509.0, 1506.0, 1511.0, 1508.0, 1512.0, 1508.0, 1508.0, 1512.0, 1501.0, 1511.0, 1509.0, 1510.0, 1507.0, 1508.0, 1507.0, 1505.0, 1510.0, 1503.0, 1508.0, 1511.0, 1504.0, 1510.0, 1505.0, 1510.0, 1509.0, 1506.0, 1514.0, 1507.0, 1507.0, 1502.0, 1507.0, 1504.0, 1510.0, 1504.0, 1508.0, 1503.0, 1500.0, 1508.0, 1509.0, 1509.0, 1508.0, 1500.0, 1504.0, 1505.0, 1506.0, 1510.0, 1509.0, 1508.0, 1504.0, 1507.0, 1505.0, 1506.0, 1506.0, 1511.0, 1505.0, 1505.0, 1502.0, 1508.0, 1504.0, 1511.0, 1510.0, 1504.0, 1508.0, 1506.0, 1500.0, 1509.0, 1504.0, 1508.0, 1502.0, 1506.0, 1502.0, 1506.0, 1507.0, 1501.0, 1504.0, 1506.0, 1501.0, 1508.0, 1499.0, 1508.0, 1508.0, 1510.0, 1509.0, 1507.0, 1503.0, 1504.0, 1507.0, 1504.0, 1509.0, 1505.0, 1510.0, 1504.0, 1505.0, 1501.0, 1507.0, 1511.0, 1503.0, 1500.0, 1506.0, 1503.0, 1511.0, 1502.0, 1510.0, 1501.0, 1505.0, 1501.0, 1508.0, 1502.0, 1506.0, 1505.0, 1508.0, 1506.0, 1504.0, 1509.0, 1504.0, 1506.0, 1504.0, 1503.0, 1508.0, 1504.0, 1508.0, 1503.0, 1506.0, 1502.0, 1506.0, 1504.0, 1508.0, 1504.0, 1505.0, 1506.0, 1506.0, 1509.0, 1503.0, 1507.0, 1506.0, 1500.0, 1508.0, 1502.0, 1507.0, 1503.0, 1506.0, 1505.0, 1504.0, 1510.0, 1510.0, 1504.0, 1507.0, 1500.0, 1505.0, 1500.0, 1506.0, 1502.0, 1510.0, 1503.0, 1502.0, 1509.0, 1503.0, 1498.0, 1501.0, 1501.0, 1499.0, 1504.0, 1503.0, 1511.0, 1505.0, 1505.0, 1499.0, 1500.0, 1500.0, 1505.0, 1505.0, 1503.0, 1503.0, 1504.0, 1501.0, 1498.0, 1501.0, 1499.0, 1504.0, 1501.0, 1503.0, 1502.0, 1503.0, 1504.0, 1505.0, 1506.0, 1502.0, 1506.0, 1508.0, 1504.0, 1502.0, 1502.0, 1505.0, 1507.0, 1502.0, 1507.0, 1504.0, 1496.0, 1501.0, 1508.0, 1505.0, 1505.0, 1496.0, 1504.0, 1499.0, 1507.0, 1498.0, 1509.0, 1503.0, 1505.0, 1503.0, 1502.0, 1505.0, 1500.0, 1503.0, 1500.0, 1503.0, 1510.0, 1505.0, 1497.0, 1507.0, 1502.0, 1508.0, 1509.0, 1502.0, 1500.0, 1501.0]
    },
    "slices": {}
  }
}