{
  "AcquisitionMatrixPE": 70,
  "AcquisitionNumber": 1,
  "AcquisitionTime": "09:37:6.960000",
  "BandwidthPerPixelPhaseEncode": 38.873,
  "BaseResolution": 70,
  "BodyPartExamined": "HEAD",
  "ConsistencyInfo": "N4_VE11B_LATEST_20150530",
  "ConversionSoftware": "dcm2niix",
  "ConversionSoftwareVersion": "v1.0.20190410  GCC6.3.0",
  "DerivedVendorReportedEchoSpacing": 0.000489996,
  "DeviceSerialNumber": "66088",
  "DwellTime": 2.9e-06,
  "EchoTime": 0.03,
  "EchoTrainLength": 53,
  "EffectiveEchoSpacing": 0.000367497,
  "FlipAngle": 90,
  "ImageOrientationPatientDICOM": [0.998896, 0.0390918, -0.0260623, -0.0453596, 0.946965, -0.318118],
  "ImageType": [
    "ORIGINAL",
    "PRIMARY",
    "M",
    "ND",
    "NORM",
    "MOSAIC"
],
  "ImagingFrequency": 123.191,
  "InPlanePhaseEncodingDirectionDICOM": "COL",
  "InstitutionAddress": "Street_StreetNo_City_District_IR_ZIP",
  "InstitutionName": "Hospital",
  "InstitutionalDepartmentName": "Department",
  "MRAcquisitionType": "2D",
  "MagneticFieldStrength": 3,
  "Manufacturer": "Siemens",
  "ManufacturersModelName": "Prisma",
  "Modality": "MR",
  "ParallelReductionFactorInPlane": 2,
  "PartialFourier": 1,
  "PatientPosition": "HFS",
  "PercentPhaseFOV": 100,
  "PhaseEncodingDirection": "j-",
  "PhaseEncodingSteps": 105,
  "PhaseOversampling": 0.5,
  "PhaseResolution": 1,
  "PixelBandwidth": 2465,
  "ProcedureStepDescription": "NBML_Project_P-95001-Shirvaliloo",
  "ProtocolName": "ep2d_p2_Task_3.5_measurment:237",
  "PulseSequenceDetails": "%SiemensSeq%_ep2d_pace",
  "ReceiveCoilActiveElements": "HC1-7;NC1",
  "ReceiveCoilName": "HeadNeck_64",
  "ReconMatrixPE": 70,
  "RefLinesPE": 24,
  "RepetitionTime": 2,
  "SAR": 0.0878166,
  "ScanOptions": "FS",
  "ScanningSequence": "EP",
  "SequenceName": "_epfid2d1_70",
  "SequenceVariant": "SK_OSP",
  "SeriesDescription": "ep2d_p2_Task_3.5_measurment:237",
  "SeriesNumber": 8,
  "ShimSetting": [2613, -4501, -3227, 516, 63, -2, 7, -24],
  "SliceThickness": 3.5,
  "SliceTiming": [0.99, 0, 1.0475, 0.0575, 1.1075, 0.1175, 1.165, 0.175, 1.2225, 0.2325, 1.28, 0.29, 1.34, 0.35, 1.3975, 0.4075, 1.455, 0.465, 1.515, 0.525, 1.5725, 0.5825, 1.63, 0.64, 1.6875, 0.7, 1.7475, 0.7575, 1.805, 0.815, 1.8625, 0.8725, 1.9225, 0.9325],
  "SoftwareVersions": "syngo_MR_E11",
  "SpacingBetweenSlices": 3.85,
  "StationName": "AWP66088",
  "TaskName": "categorySelectivity",
  "TotalReadoutTime": 0.0253573,
  "TxRefAmp": 234.708,
  "dcmmeta_affine": [
    [-3.538944721221924, -0.16070258617401123, -0.047140587121248245, 129.1709442138672],
    [-0.1384967565536499, 3.3549628257751465, -1.2279541492462158, -90.27825927734375],
    [-0.09233514964580536, 1.1270475387573242, 3.6486170291900635, -80.58671569824219],
    [0.0, 0.0, 0.0, 1.0]
],
  "dcmmeta_reorient_transform": [
    [0.0, -1.0, 0.0, 69.0],
    [1.0, 0.0, 0.0, 0.0],
    [0.0, 0.0, 1.0, 0.0],
    [0.0, 0.0, 0.0, 1.0]
],
  "dcmmeta_shape": [70, 70, 34, 237],
  "dcmmeta_slice_dim": 2,
  "dcmmeta_version": 0.6,
  "global": {
    "const": {
      "AccessionNumber": "MB",
      "AcquisitionMatrix": [70, 0, 0, 70],
      "AngioFlag": "N",
      "BitsAllocated": 16,
      "BitsStored": 12,
      "BodyPartExamined": "HEAD",
      "Columns": 420,
      "EchoNumbers": 1,
      "EchoTime": 30.0,
      "EchoTrainLength": 53,
      "FlipAngle": 90.0,
      "HighBit": 11,
      "ImageOrientationPatient": [0.99889568197765, 0.03909182723234, -0.0260623400722, -0.0453596015722, 0.94696530059363, -0.3181182579118],
      "ImagePositionPatient": [-709.27483838186, -752.56959536893, 210.57153416686],
      "ImageType": [
        "ORIGINAL",
        "PRIMARY",
        "M",
        "ND",
        "NORM",
        "MOSAIC"
],
      "ImagedNucleus": "1H",
      "ImagingFrequency": 123.191176,
      "InPlanePhaseEncodingDirection": "COL",
      "MRAcquisitionType": "2D",
      "MagneticFieldStrength": 3.0,
      "Manufacturer": "SIEMENS",
      "ManufacturerModelName": "Prisma",
      "Modality": "MR",
      "NumberOfAverages": 1.0,
      "NumberOfPhaseEncodingSteps": 105,
      "PercentPhaseFieldOfView": 100.0,
      "PercentSampling": 100.0,
      "PerformedProcedureStepStartTime": "084313.184000",
      "PhotometricInterpretation": "MONOCHROME2",
      "PixelBandwidth": 2465.0,
      "PixelRepresentation": 0,
      "PixelSpacing": [3.542857170105, 3.542857170105],
      "ProtocolName": "ep2d_p2_Task_3.5_measurment:237",
      "RepetitionTime": 2000.0,
      "Rows": 420,
      "SAR": 0.0878165488485,
      "SamplesPerPixel": 1,
      "ScanOptions": "FS",
      "ScanningSequence": "EP",
      "SequenceName": "*epfid2d1_70",
      "SequenceVariant": [
        "SK",
        "OSP"
],
      "SeriesDescription": "ep2d_p2_Task_3.5_measurment:237",
      "SeriesNumber": 8,
      "SeriesTime": "093747.486000",
      "SliceLocation": -49.158884188097,
      "SliceThickness": 3.5,
      "SmallestImagePixelValue": 0,
      "SoftwareVersions": "syngo MR E11",
      "SpacingBetweenSlices": 3.8500000907346,
      "SpecificCharacterSet": "ISO_IR 100",
      "StudyID": "1",
      "StudyTime": "084313.040000",
      "TransmitCoilName": "Body",
      "VariableFlipAngleFlag": "N",
      "WindowCenterWidthExplanation": "Algo1",
      "dBdt": 0.0},
    "slices": {}
  },
  "time": {
    "samples": {
      "AcquisitionNumber": [1, 2, 3, 4, 5, 6, 7, 8, 9, 10, 11, 12, 13, 14, 15, 16, 17, 18, 19, 20, 21, 22, 23, 24, 25, 26, 27, 28, 29, 30, 31, 32, 33, 34, 35, 36, 37, 38, 39, 40, 41, 42, 43, 44, 45, 46, 47, 48, 49, 50, 51, 52, 53, 54, 55, 56, 57, 58, 59, 60, 61, 62, 63, 64, 65, 66, 67, 68, 69, 70, 71, 72, 73, 74, 75, 76, 77, 78, 79, 80, 81, 82, 83, 84, 85, 86, 87, 88, 89, 90, 91, 92, 93, 94, 95, 96, 97, 98, 99, 100, 101, 102, 103, 104, 105, 106, 107, 108, 109, 110, 111, 112, 113, 114, 115, 116, 117, 118, 119, 120, 121, 122, 123, 124, 125, 126, 127, 128, 129, 130, 131, 132, 133, 134, 135, 136, 137, 138, 139, 140, 141, 142, 143, 144, 145, 146, 147, 148, 149, 150, 151, 152, 153, 154, 155, 156, 157, 158, 159, 160, 161, 162, 163, 164, 165, 166, 167, 168, 169, 170, 171, 172, 173, 174, 175, 176, 177, 178, 179, 180, 181, 182, 183, 184, 185, 186, 187, 188, 189, 190, 191, 192, 193, 194, 195, 196, 197, 198, 199, 200, 201, 202, 203, 204, 205, 206, 207, 208, 209, 210, 211, 212, 213, 214, 215, 216, 217, 218, 219, 220, 221, 222, 223, 224, 225, 226, 227, 228, 229, 230, 231, 232, 233, 234, 235, 236, 237],
      "AcquisitionTime": ["093706.960000", "093708.960000", "093710.960000", "093712.960000", "093714.960000", "093716.960000", "093718.960000", "093720.960000", "093722.960000", "093724.960000", "093726.960000", "093728.960000", "093730.960000", "093732.960000", "093734.960000", "093736.960000", "093738.960000", "093740.960000", "093742.960000", "093744.960000", "093746.960000", "093748.960000", "093750.960000", "093752.960000", "093754.960000", "093756.960000", "093758.960000", "093800.960000", "093802.960000", "093804.960000", "093806.960000", "093808.960000", "093810.960000", "093812.960000", "093814.960000", "093816.960000", "093818.960000", "093820.960000", "093822.960000", "093824.960000", "093826.960000", "093828.960000", "093830.960000", "093832.960000", "093834.960000", "093836.960000", "093838.960000", "093840.960000", "093842.960000", "093844.960000", "093846.960000", "093848.960000", "093850.960000", "093852.960000", "093854.960000", "093856.960000", "093858.960000", "093900.960000", "093902.960000", "093904.960000", "093906.960000", "093908.960000", "093910.960000", "093912.960000", "093914.960000", "093916.960000", "093918.960000", "093920.960000", "093922.960000", "093924.960000", "093926.960000", "093928.960000", "093930.960000", "093932.960000", "093934.960000", "093936.960000", "093938.960000", "093940.960000", "093942.960000", "093944.960000", "093946.960000", "093948.960000", "093950.960000", "093952.960000", "093954.960000", "093956.960000", "093958.960000", "094000.960000", "094002.960000", "094004.960000", "094006.960000", "094008.960000", "094010.960000", "094012.960000", "094014.960000", "094016.960000", "094018.960000", "094020.960000", "094022.960000", "094024.960000", "094026.960000", "094028.960000", "094030.960000", "094032.960000", "094034.960000", "094036.960000", "094038.960000", "094040.960000", "094042.960000", "094044.960000", "094046.960000", "094048.960000", "094050.960000", "094052.960000", "094054.960000", "094056.960000", "094058.960000", "094100.960000", "094102.960000", "094104.960000", "094106.960000", "094108.960000", "094110.960000", "094112.960000", "094114.960000", "094116.960000", "094118.960000", "094120.960000", "094122.960000", "094124.960000", "094126.960000", "094128.960000", "094130.960000", "094132.960000", "094134.960000", "094136.960000", "094138.960000", "094140.960000", "094142.960000", "094144.960000", "094146.960000", "094148.960000", "094150.960000", "094152.960000", "094154.960000", "094156.960000", "094158.960000", "094200.960000", "094202.960000", "094204.960000", "094206.960000", "094208.960000", "094210.960000", "094212.960000", "094214.960000", "094216.960000", "094218.960000", "094220.960000", "094222.960000", "094224.960000", "094226.960000", "094228.960000", "094230.960000", "094232.960000", "094234.960000", "094236.960000", "094238.960000", "094240.960000", "094242.960000", "094244.960000", "094246.960000", "094248.960000", "094250.960000", "094252.960000", "094254.960000", "094256.960000", "094258.960000", "094300.960000", "094302.960000", "094304.960000", "094306.960000", "094308.960000", "094310.960000", "094312.960000", "094314.960000", "094316.960000", "094318.960000", "094320.960000", "094322.960000", "094324.960000", "094326.960000", "094328.960000", "094330.960000", "094332.960000", "094334.960000", "094336.960000", "094338.960000", "094340.960000", "094342.960000", "094344.960000", "094346.960000", "094348.960000", "094350.960000", "094352.960000", "094354.960000", "094356.960000", "094358.960000", "094400.960000", "094402.960000", "094404.960000", "094406.960000", "094408.960000", "094410.960000", "094412.960000", "094414.960000", "094416.960000", "094418.960000", "094420.960000", "094422.960000", "094424.960000", "094426.960000", "094428.960000", "094430.960000", "094432.960000", "094434.960000", "094436.960000", "094438.960000", "094440.960000", "094442.960000", "094444.960000", "094446.960000", "094448.960000", "094450.960000", "094452.960000", "094454.960000", "094456.960000", "094458.960000"],
      "ContentTime": ["093747.490000", "093747.494000", "093747.496000", "093747.499000", "093747.501000", "093747.504000", "093747.521000", "093747.523000", "093747.526000", "093747.529000", "093747.531000", "093747.533000", "093747.536000", "093747.539000", "093747.541000", "093747.544000", "093747.546000", "093747.549000", "093747.551000", "093747.554000", "093827.484000", "093827.486000", "093827.489000", "093827.491000", "093827.493000", "093827.496000", "093827.498000", "093827.501000", "093827.503000", "093827.505000", "093827.508000", "093827.510000", "093827.513000", "093827.515000", "093827.518000", "093827.520000", "093827.523000", "093827.526000", "093827.528000", "093827.531000", "093907.482000", "093907.485000", "093907.487000", "093907.490000", "093907.492000", "093907.495000", "093907.497000", "093907.499000", "093907.502000", "093907.504000", "093907.506000", "093907.509000", "093907.511000", "093907.514000", "093907.516000", "093907.518000", "093907.521000", "093907.523000", "093907.526000", "093907.528000", "093947.483000", "093947.486000", "093947.489000", "093947.491000", "093947.494000", "093947.496000", "093947.499000", "093947.501000", "093947.504000", "093947.506000", "093947.509000", "093947.511000", "093947.514000", "093947.516000", "093947.519000", "093947.521000", "093947.524000", "093947.526000", "093947.529000", "093947.532000", "094027.485000", "094027.488000", "094027.490000", "094027.493000", "094027.495000", "094027.498000", "094027.500000", "094027.503000", "094027.505000", "094027.508000", "094027.510000", "094027.513000", "094027.515000", "094027.518000", "094027.520000", "094027.523000", "094027.525000", "094027.528000", "094027.530000", "094027.533000", "094107.483000", "094107.486000", "094107.488000", "094107.491000", "094107.493000", "094107.496000", "094107.498000", "094107.500000", "094107.503000", "094107.505000", "094107.508000", "094107.510000", "094107.512000", "094107.515000", "094107.517000", "094107.519000", "094107.522000", "094107.524000", "094107.527000", "094107.529000", "094147.484000", "094147.487000", "094147.489000", "094147.492000", "094147.494000", "094147.497000", "094147.499000", "094147.501000", "094147.504000", "094147.506000", "094147.509000", "094147.511000", "094147.513000", "094147.516000", "094147.518000", "094147.521000", "094147.523000", "094147.525000", "094147.528000", "094147.530000", "094227.484000", "094227.487000", "094227.489000", "094227.492000", "094227.495000", "094227.497000", "094227.500000", "094227.502000", "094227.508000", "094227.510000", "094227.513000", "094227.515000", "094227.518000", "094227.520000", "094227.523000", "094227.525000", "094227.528000", "094227.531000", "094227.533000", "094227.536000", "094307.484000", "094307.486000", "094307.489000", "094307.491000", "094307.493000", "094307.496000", "094307.498000", "094307.501000", "094307.503000", "094307.505000", "094307.508000", "094307.510000", "094307.512000", "094307.515000", "094307.517000", "094307.520000", "094307.522000", "094307.525000", "094307.527000", "094307.529000", "094347.482000", "094347.485000", "094347.488000", "094347.490000", "094347.492000", "094347.495000", "094347.497000", "094347.500000", "094347.502000", "094347.504000", "094347.507000", "094347.509000", "094347.512000", "094347.514000", "094347.517000", "094347.519000", "094347.540000", "094347.542000", "094347.545000", "094347.547000", "094427.484000", "094427.486000", "094427.489000", "094427.492000", "094427.494000", "094427.497000", "094427.499000", "094427.502000", "094427.504000", "094427.507000", "094427.509000", "094427.512000", "094427.515000", "094427.517000", "094427.520000", "094427.522000", "094427.525000", "094427.528000", "094427.531000", "094427.533000", "094500.879000", "094500.882000", "094500.884000", "094500.887000", "094500.889000", "094500.892000", "094500.894000", "094500.897000", "094500.899000", "094500.901000", "094500.904000", "094500.906000", "094500.909000", "094500.913000", "094500.917000", "094500.920000", "094500.924000"],
      "InstanceCreationTime": ["093747.490000", "093747.494000", "093747.496000", "093747.499000", "093747.501000", "093747.504000", "093747.521000", "093747.523000", "093747.526000", "093747.529000", "093747.531000", "093747.533000", "093747.536000", "093747.539000", "093747.541000", "093747.544000", "093747.546000", "093747.549000", "093747.551000", "093747.554000", "093827.484000", "093827.486000", "093827.489000", "093827.491000", "093827.493000", "093827.496000", "093827.498000", "093827.501000", "093827.503000", "093827.505000", "093827.508000", "093827.510000", "093827.513000", "093827.515000", "093827.518000", "093827.520000", "093827.523000", "093827.526000", "093827.528000", "093827.531000", "093907.482000", "093907.485000", "093907.487000", "093907.490000", "093907.492000", "093907.495000", "093907.497000", "093907.499000", "093907.502000", "093907.504000", "093907.506000", "093907.509000", "093907.511000", "093907.514000", "093907.516000", "093907.518000", "093907.521000", "093907.523000", "093907.526000", "093907.528000", "093947.483000", "093947.486000", "093947.489000", "093947.491000", "093947.494000", "093947.496000", "093947.499000", "093947.501000", "093947.504000", "093947.506000", "093947.509000", "093947.511000", "093947.514000", "093947.516000", "093947.519000", "093947.521000", "093947.524000", "093947.526000", "093947.529000", "093947.532000", "094027.485000", "094027.488000", "094027.490000", "094027.493000", "094027.495000", "094027.498000", "094027.500000", "094027.503000", "094027.505000", "094027.508000", "094027.510000", "094027.513000", "094027.515000", "094027.518000", "094027.520000", "094027.523000", "094027.525000", "094027.528000", "094027.530000", "094027.533000", "094107.483000", "094107.486000", "094107.488000", "094107.491000", "094107.493000", "094107.496000", "094107.498000", "094107.500000", "094107.503000", "094107.505000", "094107.508000", "094107.510000", "094107.512000", "094107.515000", "094107.517000", "094107.519000", "094107.522000", "094107.524000", "094107.527000", "094107.529000", "094147.484000", "094147.487000", "094147.489000", "094147.492000", "094147.494000", "094147.497000", "094147.499000", "094147.501000", "094147.504000", "094147.506000", "094147.509000", "094147.511000", "094147.513000", "094147.516000", "094147.518000", "094147.521000", "094147.523000", "094147.525000", "094147.528000", "094147.530000", "094227.484000", "094227.487000", "094227.489000", "094227.492000", "094227.495000", "094227.497000", "094227.500000", "094227.502000", "094227.508000", "094227.510000", "094227.513000", "094227.515000", "094227.518000", "094227.520000", "094227.523000", "094227.525000", "094227.528000", "094227.531000", "094227.533000", "094227.536000", "094307.484000", "094307.486000", "094307.489000", "094307.491000", "094307.493000", "094307.496000", "094307.498000", "094307.501000", "094307.503000", "094307.505000", "094307.508000", "094307.510000", "094307.512000", "094307.515000", "094307.517000", "094307.520000", "094307.522000", "094307.525000", "094307.527000", "094307.529000", "094347.482000", "094347.485000", "094347.488000", "094347.490000", "094347.492000", "094347.495000", "094347.497000", "094347.500000", "094347.502000", "094347.504000", "094347.507000", "094347.509000", "094347.512000", "094347.514000", "094347.517000", "094347.519000", "094347.540000", "094347.542000", "094347.545000", "094347.547000", "094427.484000", "094427.486000", "094427.489000", "094427.492000", "094427.494000", "094427.497000", "094427.499000", "094427.502000", "094427.504000", "094427.507000", "094427.509000", "094427.512000", "094427.515000", "094427.517000", "094427.520000", "094427.522000", "094427.525000", "094427.528000", "094427.531000", "094427.533000", "094500.879000", "094500.882000", "094500.884000", "094500.887000", "094500.889000", "094500.892000", "094500.894000", "094500.897000", "094500.899000", "094500.901000", "094500.904000", "094500.906000", "094500.909000", "094500.913000", "094500.917000", "094500.920000", "094500.924000"],
      "InstanceNumber": [1, 2, 3, 4, 5, 6, 7, 8, 9, 10, 11, 12, 13, 14, 15, 16, 17, 18, 19, 20, 21, 22, 23, 24, 25, 26, 27, 28, 29, 30, 31, 32, 33, 34, 35, 36, 37, 38, 39, 40, 41, 42, 43, 44, 45, 46, 47, 48, 49, 50, 51, 52, 53, 54, 55, 56, 57, 58, 59, 60, 61, 62, 63, 64, 65, 66, 67, 68, 69, 70, 71, 72, 73, 74, 75, 76, 77, 78, 79, 80, 81, 82, 83, 84, 85, 86, 87, 88, 89, 90, 91, 92, 93, 94, 95, 96, 97, 98, 99, 100, 101, 102, 103, 104, 105, 106, 107, 108, 109, 110, 111, 112, 113, 114, 115, 116, 117, 118, 119, 120, 121, 122, 123, 124, 125, 126, 127, 128, 129, 130, 131, 132, 133, 134, 135, 136, 137, 138, 139, 140, 141, 142, 143, 144, 145, 146, 147, 148, 149, 150, 151, 152, 153, 154, 155, 156, 157, 158, 159, 160, 161, 162, 163, 164, 165, 166, 167, 168, 169, 170, 171, 172, 173, 174, 175, 176, 177, 178, 179, 180, 181, 182, 183, 184, 185, 186, 187, 188, 189, 190, 191, 192, 193, 194, 195, 196, 197, 198, 199, 200, 201, 202, 203, 204, 205, 206, 207, 208, 209, 210, 211, 212, 213, 214, 215, 216, 217, 218, 219, 220, 221, 222, 223, 224, 225, 226, 227, 228, 229, 230, 231, 232, 233, 234, 235, 236, 237],
      "LargestImagePixelValue": [1906, 1993, 1890, 2054, 1804, 1829, 1864, 1863, 1893, 2082, 1840, 1984, 2114, 2041, 1986, 1982, 1872, 1960, 1949, 1873, 1895, 1979, 1918, 2197, 2034, 2146, 2060, 1996, 1940, 2099, 1894, 2125, 2157, 1960, 2016, 2026, 1988, 1923, 1851, 1943, 2042, 1854, 1834, 1932, 1839, 2116, 1911, 1859, 1923, 1962, 1964, 1933, 1890, 1991, 1971, 1862, 1876, 2066, 1958, 2021, 1933, 1934, 1859, 1950, 1980, 1940, 1925, 1925, 2002, 1959, 1973, 1876, 1928, 1873, 2085, 1974, 1926, 2172, 1882, 1981, 1971, 2105, 2106, 2031, 1968, 2098, 2027, 2054, 2064, 1852, 1887, 1897, 2035, 2044, 1953, 2099, 1952, 2005, 2111, 1900, 1986, 1833, 1944, 1898, 1951, 1953, 1962, 2079, 1925, 2013, 1914, 1828, 1987, 1846, 2045, 1911, 1863, 2044, 1953, 2016, 1949, 2090, 2046, 1943, 1903, 1795, 1896, 1904, 2076, 1880, 1900, 2168, 1858, 1840, 1801, 1850, 1983, 1767, 1795, 2101, 1816, 1954, 1973, 1816, 1962, 1921, 1848, 1901, 1873, 2094, 1838, 2093, 1768, 1988, 1901, 2028, 1924, 1901, 1766, 1847, 2114, 1862, 1930, 1987, 1875, 1772, 1893, 1785, 2064, 1812, 2119, 1788, 1873, 1856, 1862, 1831, 1945, 1761, 1953, 1785, 2033, 1968, 1909, 2045, 1831, 2038, 2033, 2044, 1958, 1846, 1987, 1885, 2065, 2019, 1939, 1822, 1916, 1881, 1880, 1826, 1825, 2001, 1854, 1886, 1902, 1903, 1935, 1926, 1947, 1942, 1968, 1901, 1787, 1964, 1868, 1964, 1898, 1825, 2036, 1867, 1904, 2093, 1818, 1849, 1957, 1848, 1891, 2157, 1933, 1833, 2019, 1830, 2010, 1817, 1976, 1787, 1867],
      "WindowCenter": [688.0, 688.0, 688.0, 688.0, 686.0, 686.0, 687.0, 686.0, 687.0, 686.0, 685.0, 685.0, 687.0, 686.0, 686.0, 687.0, 686.0, 686.0, 685.0, 686.0, 687.0, 687.0, 685.0, 687.0, 686.0, 686.0, 687.0, 687.0, 687.0, 686.0, 686.0, 687.0, 686.0, 688.0, 687.0, 686.0, 686.0, 686.0, 686.0, 685.0, 686.0, 685.0, 686.0, 686.0, 685.0, 687.0, 687.0, 685.0, 684.0, 687.0, 686.0, 685.0, 686.0, 686.0, 687.0, 685.0, 684.0, 686.0, 686.0, 686.0, 688.0, 688.0, 686.0, 685.0, 686.0, 685.0, 686.0, 685.0, 685.0, 686.0, 686.0, 686.0, 686.0, 685.0, 686.0, 684.0, 685.0, 687.0, 687.0, 685.0, 685.0, 684.0, 686.0, 688.0, 686.0, 688.0, 688.0, 685.0, 686.0, 685.0, 683.0, 683.0, 686.0, 686.0, 686.0, 686.0, 687.0, 687.0, 686.0, 687.0, 686.0, 685.0, 686.0, 686.0, 685.0, 685.0, 686.0, 685.0, 685.0, 687.0, 687.0, 687.0, 687.0, 686.0, 687.0, 687.0, 686.0, 686.0, 687.0, 686.0, 687.0, 685.0, 685.0, 687.0, 687.0, 685.0, 685.0, 685.0, 687.0, 686.0, 684.0, 684.0, 687.0, 686.0, 686.0, 686.0, 685.0, 686.0, 686.0, 685.0, 685.0, 686.0, 685.0, 685.0, 685.0, 685.0, 686.0, 686.0, 686.0, 685.0, 686.0, 688.0, 685.0, 684.0, 685.0, 684.0, 686.0, 687.0, 684.0, 685.0, 685.0, 684.0, 687.0, 687.0, 685.0, 685.0, 685.0, 685.0, 685.0, 686.0, 686.0, 685.0, 686.0, 686.0, 686.0, 685.0, 685.0, 686.0, 685.0, 684.0, 684.0, 686.0, 687.0, 687.0, 686.0, 685.0, 686.0, 688.0, 687.0, 685.0, 686.0, 687.0, 684.0, 685.0, 686.0, 685.0, 685.0, 686.0, 685.0, 686.0, 685.0, 686.0, 685.0, 684.0, 686.0, 684.0, 684.0, 685.0, 685.0, 685.0, 687.0, 687.0, 686.0, 684.0, 685.0, 686.0, 686.0, 685.0, 685.0, 685.0, 685.0, 686.0, 685.0, 686.0, 686.0, 685.0, 684.0, 685.0, 683.0, 686.0, 686.0, 686.0, 686.0, 684.0, 685.0, 686.0, 685.0],
      "WindowWidth": [1510.0, 1509.0, 1509.0, 1510.0, 1505.0, 1504.0, 1505.0, 1505.0, 1505.0, 1505.0, 1502.0, 1501.0, 1507.0, 1504.0, 1505.0, 1507.0, 1504.0, 1505.0, 1502.0, 1502.0, 1505.0, 1506.0, 1501.0, 1506.0, 1503.0, 1505.0, 1507.0, 1506.0, 1507.0, 1505.0, 1504.0, 1506.0, 1504.0, 1509.0, 1505.0, 1503.0, 1503.0, 1504.0, 1504.0, 1501.0, 1505.0, 1502.0, 1502.0, 1502.0, 1502.0, 1507.0, 1506.0, 1500.0, 1498.0, 1506.0, 1506.0, 1501.0, 1504.0, 1504.0, 1507.0, 1502.0, 1500.0, 1503.0, 1503.0, 1504.0, 1509.0, 1508.0, 1502.0, 1501.0, 1502.0, 1502.0, 1503.0, 1502.0, 1502.0, 1504.0, 1504.0, 1504.0, 1503.0, 1502.0, 1505.0, 1500.0, 1502.0, 1507.0, 1506.0, 1502.0, 1502.0, 1499.0, 1504.0, 1509.0, 1505.0, 1511.0, 1508.0, 1502.0, 1503.0, 1500.0, 1495.0, 1497.0, 1503.0, 1504.0, 1504.0, 1504.0, 1505.0, 1506.0, 1504.0, 1508.0, 1504.0, 1501.0, 1505.0, 1503.0, 1501.0, 1502.0, 1503.0, 1503.0, 1501.0, 1505.0, 1508.0, 1506.0, 1506.0, 1503.0, 1506.0, 1506.0, 1503.0, 1504.0, 1505.0, 1505.0, 1505.0, 1503.0, 1503.0, 1507.0, 1506.0, 1501.0, 1500.0, 1502.0, 1505.0, 1503.0, 1500.0, 1498.0, 1507.0, 1506.0, 1504.0, 1502.0, 1502.0, 1504.0, 1504.0, 1502.0, 1502.0, 1505.0, 1502.0, 1502.0, 1501.0, 1502.0, 1503.0, 1503.0, 1503.0, 1502.0, 1505.0, 1511.0, 1501.0, 1500.0, 1500.0, 1497.0, 1505.0, 1504.0, 1498.0, 1500.0, 1501.0, 1501.0, 1507.0, 1507.0, 1502.0, 1501.0, 1500.0, 1500.0, 1503.0, 1503.0, 1504.0, 1500.0, 1504.0, 1504.0, 1503.0, 1501.0, 1503.0, 1504.0, 1502.0, 1499.0, 1499.0, 1504.0, 1506.0, 1507.0, 1504.0, 1500.0, 1503.0, 1510.0, 1506.0, 1502.0, 1503.0, 1505.0, 1499.0, 1503.0, 1503.0, 1502.0, 1500.0, 1503.0, 1501.0, 1503.0, 1500.0, 1503.0, 1499.0, 1499.0, 1502.0, 1500.0, 1500.0, 1500.0, 1500.0, 1502.0, 1505.0, 1505.0, 1502.0, 1500.0, 1500.0, 1503.0, 1502.0, 1500.0, 1502.0, 1502.0, 1502.0, 1503.0, 1502.0, 1504.0, 1503.0, 1500.0, 1500.0, 1501.0, 1496.0, 1505.0, 1503.0, 1506.0, 1504.0, 1497.0, 1501.0, 1502.0, 1500.0]
    },
    "slices": {}
  }
}