{
  "AcquisitionMatrixPE": 70,
  "AcquisitionNumber": 1,
  "AcquisitionTime": "08:51:21.392500",
  "BandwidthPerPixelPhaseEncode": 38.873,
  "BaseResolution": 70,
  "BodyPartExamined": "HEAD",
  "ConsistencyInfo": "N4_VE11B_LATEST_20150530",
  "ConversionSoftware": "dcm2niix",
  "ConversionSoftwareVersion": "v1.0.20190410  GCC6.3.0",
  "DerivedVendorReportedEchoSpacing": 0.000489996,
  "DeviceSerialNumber": "66088",
  "DwellTime": 2.9e-06,
  "EchoTime": 0.03,
  "EchoTrainLength": 53,
  "EffectiveEchoSpacing": 0.000367497,
  "FlipAngle": 90,
  "ImageOrientationPatientDICOM": [0.998896, 0.0390918, -0.0260623, -0.0453596, 0.946965, -0.318118],
  "ImageType": [
    "ORIGINAL",
    "PRIMARY",
    "M",
    "ND",
    "NORM",
    "MOSAIC"
],
  "ImagingFrequency": 123.191,
  "InPlanePhaseEncodingDirectionDICOM": "COL",
  "InstitutionAddress": "Street_StreetNo_City_District_IR_ZIP",
  "InstitutionName": "Hospital",
  "InstitutionalDepartmentName": "Department",
  "MRAcquisitionType": "2D",
  "MagneticFieldStrength": 3,
  "Manufacturer": "Siemens",
  "ManufacturersModelName": "Prisma",
  "Modality": "MR",
  "ParallelReductionFactorInPlane": 2,
  "PartialFourier": 1,
  "PatientPosition": "HFS",
  "PercentPhaseFOV": 100,
  "PhaseEncodingDirection": "j-",
  "PhaseEncodingSteps": 105,
  "PhaseOversampling": 0.5,
  "PhaseResolution": 1,
  "PixelBandwidth": 2465,
  "ProcedureStepDescription": "NBML_Project_P-95001-Shirvaliloo",
  "ProtocolName": "ep2d_p2_Task_3.5_measurment:237",
  "PulseSequenceDetails": "%SiemensSeq%_ep2d_pace",
  "ReceiveCoilActiveElements": "HC1-7;NC1",
  "ReceiveCoilName": "HeadNeck_64",
  "ReconMatrixPE": 70,
  "RefLinesPE": 24,
  "RepetitionTime": 2,
  "SAR": 0.0878166,
  "ScanOptions": "FS",
  "ScanningSequence": "EP",
  "SequenceName": "_epfid2d1_70",
  "SequenceVariant": "SK_OSP",
  "SeriesDescription": "ep2d_p2_Task_3.5_measurment:237",
  "SeriesNumber": 3,
  "ShimSetting": [2613, -4501, -3227, 516, 63, -2, 7, -24],
  "SliceThickness": 3.5,
  "SliceTiming": [0.99, 0, 1.05, 0.06, 1.1075, 0.1175, 1.165, 0.175, 1.2225, 0.235, 1.2825, 0.2925, 1.34, 0.35, 1.3975, 0.4075, 1.4575, 0.4675, 1.515, 0.525, 1.5725, 0.5825, 1.6325, 0.6425, 1.69, 0.7, 1.7475, 0.7575, 1.805, 0.815, 1.865, 0.875, 1.9225, 0.9325],
  "SoftwareVersions": "syngo_MR_E11",
  "SpacingBetweenSlices": 3.85,
  "StationName": "AWP66088",
  "TaskName": "categorySelectivity",
  "TotalReadoutTime": 0.0253573,
  "TxRefAmp": 234.708,
  "dcmmeta_affine": [
    [-3.538944721221924, -0.16070258617401123, -0.047140587121248245, 129.1709442138672],
    [-0.1384967565536499, 3.3549628257751465, -1.2279541492462158, -90.27825927734375],
    [-0.09233514964580536, 1.1270475387573242, 3.6486170291900635, -80.58671569824219],
    [0.0, 0.0, 0.0, 1.0]
],
  "dcmmeta_reorient_transform": [
    [0.0, -1.0, 0.0, 69.0],
    [1.0, 0.0, 0.0, 0.0],
    [0.0, 0.0, 1.0, 0.0],
    [0.0, 0.0, 0.0, 1.0]
],
  "dcmmeta_shape": [70, 70, 34, 237],
  "dcmmeta_slice_dim": 2,
  "dcmmeta_version": 0.6,
  "global": {
    "const": {
      "AccessionNumber": "MB",
      "AcquisitionMatrix": [70, 0, 0, 70],
      "AngioFlag": "N",
      "BitsAllocated": 16,
      "BitsStored": 12,
      "BodyPartExamined": "HEAD",
      "Columns": 420,
      "EchoNumbers": 1,
      "EchoTime": 30.0,
      "EchoTrainLength": 53,
      "FlipAngle": 90.0,
      "HighBit": 11,
      "ImageOrientationPatient": [0.99889568197765, 0.03909182723234, -0.0260623400722, -0.0453596015722, 0.94696530059363, -0.3181182579118],
      "ImagePositionPatient": [-709.27483838186, -752.56959536893, 210.57153416686],
      "ImageType": [
        "ORIGINAL",
        "PRIMARY",
        "M",
        "ND",
        "NORM",
        "MOSAIC"
],
      "ImagedNucleus": "1H",
      "ImagingFrequency": 123.191173,
      "InPlanePhaseEncodingDirection": "COL",
      "MRAcquisitionType": "2D",
      "MagneticFieldStrength": 3.0,
      "Manufacturer": "SIEMENS",
      "ManufacturerModelName": "Prisma",
      "Modality": "MR",
      "NumberOfAverages": 1.0,
      "NumberOfPhaseEncodingSteps": 105,
      "PercentPhaseFieldOfView": 100.0,
      "PercentSampling": 100.0,
      "PerformedProcedureStepStartTime": "084313.184000",
      "PhotometricInterpretation": "MONOCHROME2",
      "PixelBandwidth": 2465.0,
      "PixelRepresentation": 0,
      "PixelSpacing": [3.542857170105, 3.542857170105],
      "ProtocolName": "ep2d_p2_Task_3.5_measurment:237",
      "RepetitionTime": 2000.0,
      "Rows": 420,
      "SAR": 0.0878165488485,
      "SamplesPerPixel": 1,
      "ScanOptions": "FS",
      "ScanningSequence": "EP",
      "SequenceName": "*epfid2d1_70",
      "SequenceVariant": [
        "SK",
        "OSP"
],
      "SeriesDescription": "ep2d_p2_Task_3.5_measurment:237",
      "SeriesNumber": 3,
      "SeriesTime": "085207.515000",
      "SliceLocation": -49.158884188097,
      "SliceThickness": 3.5,
      "SmallestImagePixelValue": 0,
      "SoftwareVersions": "syngo MR E11",
      "SpacingBetweenSlices": 3.8500000907346,
      "SpecificCharacterSet": "ISO_IR 100",
      "StudyID": "1",
      "StudyTime": "084313.040000",
      "TransmitCoilName": "Body",
      "VariableFlipAngleFlag": "N",
      "WindowCenterWidthExplanation": "Algo1",
      "dBdt": 0.0},
    "slices": {}
  },
  "time": {
    "samples": {
      "AcquisitionNumber": [1, 2, 3, 4, 5, 6, 7, 8, 9, 10, 11, 12, 13, 14, 15, 16, 17, 18, 19, 20, 21, 22, 23, 24, 25, 26, 27, 28, 29, 30, 31, 32, 33, 34, 35, 36, 37, 38, 39, 40, 41, 42, 43, 44, 45, 46, 47, 48, 49, 50, 51, 52, 53, 54, 55, 56, 57, 58, 59, 60, 61, 62, 63, 64, 65, 66, 67, 68, 69, 70, 71, 72, 73, 74, 75, 76, 77, 78, 79, 80, 81, 82, 83, 84, 85, 86, 87, 88, 89, 90, 91, 92, 93, 94, 95, 96, 97, 98, 99, 100, 101, 102, 103, 104, 105, 106, 107, 108, 109, 110, 111, 112, 113, 114, 115, 116, 117, 118, 119, 120, 121, 122, 123, 124, 125, 126, 127, 128, 129, 130, 131, 132, 133, 134, 135, 136, 137, 138, 139, 140, 141, 142, 143, 144, 145, 146, 147, 148, 149, 150, 151, 152, 153, 154, 155, 156, 157, 158, 159, 160, 161, 162, 163, 164, 165, 166, 167, 168, 169, 170, 171, 172, 173, 174, 175, 176, 177, 178, 179, 180, 181, 182, 183, 184, 185, 186, 187, 188, 189, 190, 191, 192, 193, 194, 195, 196, 197, 198, 199, 200, 201, 202, 203, 204, 205, 206, 207, 208, 209, 210, 211, 212, 213, 214, 215, 216, 217, 218, 219, 220, 221, 222, 223, 224, 225, 226, 227, 228, 229, 230, 231, 232, 233, 234, 235, 236, 237],
      "AcquisitionTime": ["085121.392500", "085123.392500", "085125.392500", "085127.392500", "085129.392500", "085131.392500", "085133.392500", "085135.392500", "085137.392500", "085139.392500", "085141.392500", "085143.392500", "085145.392500", "085147.392500", "085149.392500", "085151.392500", "085153.392500", "085155.392500", "085157.392500", "085159.392500", "085201.392500", "085203.392500", "085205.392500", "085207.392500", "085209.392500", "085211.392500", "085213.392500", "085215.392500", "085217.392500", "085219.392500", "085221.392500", "085223.392500", "085225.392500", "085227.392500", "085229.392500", "085231.392500", "085233.392500", "085235.392500", "085237.392500", "085239.392500", "085241.392500", "085243.392500", "085245.392500", "085247.392500", "085249.392500", "085251.392500", "085253.392500", "085255.392500", "085257.392500", "085259.392500", "085301.392500", "085303.392500", "085305.392500", "085307.392500", "085309.392500", "085311.392500", "085313.392500", "085315.392500", "085317.392500", "085319.392500", "085321.392500", "085323.392500", "085325.392500", "085327.392500", "085329.392500", "085331.392500", "085333.392500", "085335.392500", "085337.392500", "085339.392500", "085341.392500", "085343.392500", "085345.392500", "085347.392500", "085349.392500", "085351.392500", "085353.392500", "085355.392500", "085357.392500", "085359.392500", "085401.392500", "085403.392500", "085405.392500", "085407.392500", "085409.392500", "085411.392500", "085413.392500", "085415.392500", "085417.392500", "085419.392500", "085421.392500", "085423.392500", "085425.392500", "085427.392500", "085429.392500", "085431.392500", "085433.392500", "085435.392500", "085437.392500", "085439.392500", "085441.392500", "085443.392500", "085445.392500", "085447.392500", "085449.392500", "085451.392500", "085453.392500", "085455.392500", "085457.392500", "085459.392500", "085501.392500", "085503.392500", "085505.392500", "085507.392500", "085509.392500", "085511.392500", "085513.392500", "085515.392500", "085517.392500", "085519.392500", "085521.392500", "085523.392500", "085525.392500", "085527.392500", "085529.392500", "085531.392500", "085533.392500", "085535.392500", "085537.392500", "085539.392500", "085541.392500", "085543.392500", "085545.392500", "085547.392500", "085549.392500", "085551.392500", "085553.392500", "085555.392500", "085557.392500", "085559.392500", "085601.392500", "085603.392500", "085605.392500", "085607.392500", "085609.392500", "085611.392500", "085613.392500", "085615.392500", "085617.392500", "085619.392500", "085621.392500", "085623.392500", "085625.392500", "085627.392500", "085629.392500", "085631.392500", "085633.392500", "085635.392500", "085637.392500", "085639.392500", "085641.392500", "085643.392500", "085645.392500", "085647.392500", "085649.392500", "085651.392500", "085653.392500", "085655.392500", "085657.392500", "085659.392500", "085701.392500", "085703.392500", "085705.392500", "085707.392500", "085709.392500", "085711.392500", "085713.392500", "085715.392500", "085717.392500", "085719.392500", "085721.392500", "085723.392500", "085725.392500", "085727.392500", "085729.392500", "085731.392500", "085733.392500", "085735.392500", "085737.392500", "085739.392500", "085741.392500", "085743.392500", "085745.392500", "085747.392500", "085749.392500", "085751.392500", "085753.392500", "085755.392500", "085757.392500", "085759.392500", "085801.392500", "085803.392500", "085805.392500", "085807.392500", "085809.392500", "085811.392500", "085813.392500", "085815.392500", "085817.392500", "085819.392500", "085821.392500", "085823.392500", "085825.392500", "085827.392500", "085829.392500", "085831.392500", "085833.392500", "085835.392500", "085837.392500", "085839.392500", "085841.392500", "085843.392500", "085845.392500", "085847.392500", "085849.392500", "085851.392500", "085853.392500", "085855.392500", "085857.392500", "085859.392500", "085901.392500", "085903.392500", "085905.392500", "085907.392500", "085909.392500", "085911.392500", "085913.392500"],
      "ContentTime": ["085207.520000", "085207.524000", "085207.536000", "085207.539000", "085207.541000", "085207.544000", "085207.546000", "085207.549000", "085207.551000", "085207.554000", "085207.556000", "085207.559000", "085207.562000", "085207.564000", "085207.567000", "085207.569000", "085207.572000", "085207.574000", "085207.577000", "085207.579000", "085207.582000", "085207.585000", "085207.587000", "085247.511000", "085247.514000", "085247.517000", "085247.519000", "085247.521000", "085247.524000", "085247.526000", "085247.529000", "085247.531000", "085247.533000", "085247.536000", "085247.538000", "085247.540000", "085247.543000", "085247.545000", "085247.548000", "085247.550000", "085247.553000", "085247.555000", "085247.558000", "085327.512000", "085327.515000", "085327.517000", "085327.520000", "085327.522000", "085327.525000", "085327.527000", "085327.529000", "085327.532000", "085327.534000", "085327.537000", "085327.539000", "085327.541000", "085327.544000", "085327.546000", "085327.549000", "085327.551000", "085327.554000", "085327.556000", "085327.559000", "085407.513000", "085407.517000", "085407.519000", "085407.521000", "085407.524000", "085407.526000", "085407.529000", "085407.531000", "085407.534000", "085407.536000", "085407.538000", "085407.541000", "085407.543000", "085407.546000", "085407.548000", "085407.551000", "085407.553000", "085407.556000", "085407.558000", "085407.560000", "085447.512000", "085447.515000", "085447.518000", "085447.520000", "085447.523000", "085447.526000", "085447.528000", "085447.531000", "085447.533000", "085447.536000", "085447.538000", "085447.540000", "085447.543000", "085447.545000", "085447.547000", "085447.550000", "085447.553000", "085447.555000", "085447.557000", "085447.560000", "085527.512000", "085527.515000", "085527.518000", "085527.520000", "085527.522000", "085527.525000", "085527.527000", "085527.530000", "085527.533000", "085527.535000", "085527.538000", "085527.540000", "085527.543000", "085527.545000", "085527.548000", "085527.550000", "085527.553000", "085527.555000", "085527.557000", "085527.560000", "085547.513000", "085547.516000", "085547.518000", "085547.521000", "085547.524000", "085547.526000", "085547.529000", "085547.531000", "085547.534000", "085547.536000", "085627.512000", "085627.515000", "085627.517000", "085627.520000", "085627.522000", "085627.525000", "085627.527000", "085627.530000", "085627.532000", "085627.534000", "085627.537000", "085627.539000", "085627.542000", "085627.544000", "085627.547000", "085627.549000", "085627.552000", "085627.554000", "085627.556000", "085627.559000", "085707.512000", "085707.515000", "085707.517000", "085707.520000", "085707.523000", "085707.525000", "085707.527000", "085707.530000", "085707.532000", "085707.535000", "085707.537000", "085707.539000", "085707.542000", "085707.544000", "085707.547000", "085707.549000", "085707.552000", "085707.554000", "085707.556000", "085707.559000", "085747.514000", "085747.517000", "085747.520000", "085747.523000", "085747.525000", "085747.528000", "085747.530000", "085747.533000", "085747.536000", "085747.538000", "085747.541000", "085747.544000", "085747.546000", "085747.549000", "085747.551000", "085747.554000", "085747.556000", "085747.559000", "085747.561000", "085747.564000", "085827.512000", "085827.516000", "085827.518000", "085827.521000", "085827.523000", "085827.525000", "085827.528000", "085827.530000", "085827.532000", "085827.535000", "085827.537000", "085827.540000", "085827.542000", "085827.545000", "085827.547000", "085827.550000", "085827.552000", "085827.554000", "085827.557000", "085827.559000", "085907.513000", "085907.516000", "085907.519000", "085907.521000", "085907.524000", "085907.526000", "085907.529000", "085907.531000", "085907.534000", "085907.537000", "085907.539000", "085907.542000", "085907.544000", "085907.547000", "085907.549000", "085907.552000", "085907.554000", "085907.557000", "085907.559000", "085907.562000", "085914.955000", "085914.958000", "085914.960000", "085914.963000"],
      "InstanceCreationTime": ["085207.520000", "085207.524000", "085207.536000", "085207.539000", "085207.541000", "085207.544000", "085207.546000", "085207.549000", "085207.551000", "085207.554000", "085207.556000", "085207.559000", "085207.562000", "085207.564000", "085207.567000", "085207.569000", "085207.572000", "085207.574000", "085207.577000", "085207.579000", "085207.582000", "085207.585000", "085207.587000", "085247.511000", "085247.514000", "085247.517000", "085247.519000", "085247.521000", "085247.524000", "085247.526000", "085247.529000", "085247.531000", "085247.533000", "085247.536000", "085247.538000", "085247.540000", "085247.543000", "085247.545000", "085247.548000", "085247.550000", "085247.553000", "085247.555000", "085247.558000", "085327.512000", "085327.515000", "085327.517000", "085327.520000", "085327.522000", "085327.525000", "085327.527000", "085327.529000", "085327.532000", "085327.534000", "085327.537000", "085327.539000", "085327.541000", "085327.544000", "085327.546000", "085327.549000", "085327.551000", "085327.554000", "085327.556000", "085327.559000", "085407.513000", "085407.517000", "085407.519000", "085407.521000", "085407.524000", "085407.526000", "085407.529000", "085407.531000", "085407.534000", "085407.536000", "085407.538000", "085407.541000", "085407.543000", "085407.546000", "085407.548000", "085407.551000", "085407.553000", "085407.556000", "085407.558000", "085407.560000", "085447.512000", "085447.515000", "085447.518000", "085447.520000", "085447.523000", "085447.526000", "085447.528000", "085447.531000", "085447.533000", "085447.536000", "085447.538000", "085447.540000", "085447.543000", "085447.545000", "085447.547000", "085447.550000", "085447.553000", "085447.555000", "085447.557000", "085447.560000", "085527.512000", "085527.515000", "085527.518000", "085527.520000", "085527.522000", "085527.525000", "085527.527000", "085527.530000", "085527.533000", "085527.535000", "085527.538000", "085527.540000", "085527.543000", "085527.545000", "085527.548000", "085527.550000", "085527.553000", "085527.555000", "085527.557000", "085527.560000", "085547.513000", "085547.516000", "085547.518000", "085547.521000", "085547.524000", "085547.526000", "085547.529000", "085547.531000", "085547.534000", "085547.536000", "085627.512000", "085627.515000", "085627.517000", "085627.520000", "085627.522000", "085627.525000", "085627.527000", "085627.530000", "085627.532000", "085627.534000", "085627.537000", "085627.539000", "085627.542000", "085627.544000", "085627.547000", "085627.549000", "085627.552000", "085627.554000", "085627.556000", "085627.559000", "085707.512000", "085707.515000", "085707.517000", "085707.520000", "085707.523000", "085707.525000", "085707.527000", "085707.530000", "085707.532000", "085707.535000", "085707.537000", "085707.539000", "085707.542000", "085707.544000", "085707.547000", "085707.549000", "085707.552000", "085707.554000", "085707.556000", "085707.559000", "085747.514000", "085747.517000", "085747.520000", "085747.523000", "085747.525000", "085747.528000", "085747.530000", "085747.533000", "085747.536000", "085747.538000", "085747.541000", "085747.544000", "085747.546000", "085747.549000", "085747.551000", "085747.554000", "085747.556000", "085747.559000", "085747.561000", "085747.564000", "085827.512000", "085827.516000", "085827.518000", "085827.521000", "085827.523000", "085827.525000", "085827.528000", "085827.530000", "085827.532000", "085827.535000", "085827.537000", "085827.540000", "085827.542000", "085827.545000", "085827.547000", "085827.550000", "085827.552000", "085827.554000", "085827.557000", "085827.559000", "085907.513000", "085907.516000", "085907.519000", "085907.521000", "085907.524000", "085907.526000", "085907.529000", "085907.531000", "085907.534000", "085907.537000", "085907.539000", "085907.542000", "085907.544000", "085907.547000", "085907.549000", "085907.552000", "085907.554000", "085907.557000", "085907.559000", "085907.562000", "085914.955000", "085914.958000", "085914.960000", "085914.963000"],
      "InstanceNumber": [1, 2, 3, 4, 5, 6, 7, 8, 9, 10, 11, 12, 13, 14, 15, 16, 17, 18, 19, 20, 21, 22, 23, 24, 25, 26, 27, 28, 29, 30, 31, 32, 33, 34, 35, 36, 37, 38, 39, 40, 41, 42, 43, 44, 45, 46, 47, 48, 49, 50, 51, 52, 53, 54, 55, 56, 57, 58, 59, 60, 61, 62, 63, 64, 65, 66, 67, 68, 69, 70, 71, 72, 73, 74, 75, 76, 77, 78, 79, 80, 81, 82, 83, 84, 85, 86, 87, 88, 89, 90, 91, 92, 93, 94, 95, 96, 97, 98, 99, 100, 101, 102, 103, 104, 105, 106, 107, 108, 109, 110, 111, 112, 113, 114, 115, 116, 117, 118, 119, 120, 121, 122, 123, 124, 125, 126, 127, 128, 129, 130, 131, 132, 133, 134, 135, 136, 137, 138, 139, 140, 141, 142, 143, 144, 145, 146, 147, 148, 149, 150, 151, 152, 153, 154, 155, 156, 157, 158, 159, 160, 161, 162, 163, 164, 165, 166, 167, 168, 169, 170, 171, 172, 173, 174, 175, 176, 177, 178, 179, 180, 181, 182, 183, 184, 185, 186, 187, 188, 189, 190, 191, 192, 193, 194, 195, 196, 197, 198, 199, 200, 201, 202, 203, 204, 205, 206, 207, 208, 209, 210, 211, 212, 213, 214, 215, 216, 217, 218, 219, 220, 221, 222, 223, 224, 225, 226, 227, 228, 229, 230, 231, 232, 233, 234, 235, 236, 237],
      "LargestImagePixelValue": [2198, 2489, 2338, 2030, 2417, 1784, 2428, 2770, 1918, 2368, 2297, 2208, 2317, 1943, 2502, 2276, 2087, 2284, 2472, 1844, 2216, 2295, 2423, 2021, 2396, 2535, 2363, 1727, 2275, 2433, 1805, 2398, 2063, 2236, 2522, 2178, 2518, 1819, 2502, 2309, 2241, 1925, 1977, 2349, 2054, 2404, 2304, 1863, 2154, 1781, 2517, 1799, 2491, 2216, 2079, 2377, 2064, 2752, 2044, 2597, 2172, 2250, 1987, 2610, 1874, 2468, 1912, 2544, 1953, 2572, 2068, 2400, 1806, 2410, 1909, 2431, 1881, 2438, 1877, 2511, 2151, 1829, 2368, 2177, 2332, 2010, 2251, 2429, 2063, 2272, 2247, 2506, 1929, 1885, 2440, 2252, 2417, 2658, 2283, 1952, 2484, 1946, 1804, 2624, 1673, 2589, 1992, 2385, 1803, 2618, 1958, 2473, 1902, 2505, 1816, 2341, 1751, 2289, 1807, 2343, 1776, 2328, 1975, 2466, 1768, 2374, 1746, 2306, 1738, 2343, 1772, 2289, 2190, 2071, 2047, 2255, 1889, 2306, 1721, 2467, 1923, 2117, 1796, 2278, 1929, 2344, 2426, 1847, 2529, 1703, 1867, 2084, 2244, 1725, 2200, 1790, 2149, 1738, 2371, 1884, 2299, 2177, 1901, 1724, 2004, 1852, 2305, 2321, 2129, 1672, 2030, 1746, 2330, 1918, 1931, 2547, 1836, 2352, 1793, 2187, 1811, 2351, 1819, 2382, 1829, 2336, 1752, 2276, 1959, 2048, 2014, 1966, 2121, 2384, 1735, 1880, 2176, 1762, 2201, 1767, 2475, 1915, 2705, 2051, 2289, 2285, 1844, 2369, 1835, 2227, 1748, 2437, 1830, 2193, 2118, 2293, 1716, 1830, 2274, 1790, 1968, 2036, 2071, 2050, 1927, 2041, 2309, 1848, 2375, 1755, 2168, 2056, 1737, 1990, 2185, 1769, 2236],
      "WindowCenter": [690.0, 689.0, 689.0, 689.0, 689.0, 689.0, 690.0, 690.0, 688.0, 688.0, 689.0, 688.0, 689.0, 690.0, 691.0, 690.0, 689.0, 690.0, 689.0, 689.0, 691.0, 689.0, 691.0, 691.0, 691.0, 690.0, 690.0, 689.0, 691.0, 690.0, 690.0, 690.0, 690.0, 690.0, 692.0, 691.0, 691.0, 689.0, 691.0, 690.0, 690.0, 689.0, 689.0, 693.0, 691.0, 691.0, 690.0, 689.0, 690.0, 690.0, 693.0, 689.0, 690.0, 689.0, 689.0, 690.0, 691.0, 691.0, 689.0, 691.0, 689.0, 690.0, 689.0, 691.0, 689.0, 689.0, 689.0, 691.0, 689.0, 691.0, 690.0, 691.0, 689.0, 690.0, 690.0, 690.0, 689.0, 690.0, 689.0, 690.0, 690.0, 690.0, 691.0, 690.0, 690.0, 690.0, 690.0, 691.0, 689.0, 690.0, 690.0, 690.0, 689.0, 689.0, 691.0, 690.0, 689.0, 690.0, 690.0, 689.0, 689.0, 691.0, 690.0, 690.0, 688.0, 691.0, 689.0, 690.0, 689.0, 690.0, 689.0, 690.0, 689.0, 689.0, 688.0, 689.0, 689.0, 691.0, 688.0, 689.0, 689.0, 692.0, 689.0, 691.0, 687.0, 690.0, 688.0, 690.0, 688.0, 690.0, 689.0, 689.0, 689.0, 687.0, 690.0, 690.0, 688.0, 689.0, 687.0, 689.0, 688.0, 688.0, 688.0, 690.0, 689.0, 691.0, 689.0, 688.0, 688.0, 686.0, 690.0, 691.0, 690.0, 688.0, 690.0, 687.0, 688.0, 688.0, 690.0, 689.0, 689.0, 689.0, 689.0, 687.0, 690.0, 691.0, 689.0, 689.0, 687.0, 685.0, 688.0, 688.0, 689.0, 688.0, 688.0, 690.0, 688.0, 688.0, 687.0, 688.0, 689.0, 690.0, 687.0, 689.0, 688.0, 690.0, 687.0, 689.0, 688.0, 689.0, 689.0, 690.0, 689.0, 688.0, 687.0, 687.0, 689.0, 689.0, 688.0, 688.0, 690.0, 689.0, 690.0, 688.0, 687.0, 689.0, 689.0, 690.0, 687.0, 689.0, 689.0, 690.0, 688.0, 689.0, 689.0, 689.0, 687.0, 689.0, 689.0, 688.0, 687.0, 689.0, 689.0, 689.0, 689.0, 689.0, 690.0, 689.0, 688.0, 687.0, 688.0, 687.0, 687.0, 688.0, 689.0, 688.0, 688.0],
      "WindowWidth": [1517.0, 1514.0, 1513.0, 1512.0, 1514.0, 1513.0, 1518.0, 1517.0, 1511.0, 1512.0, 1514.0, 1512.0, 1516.0, 1518.0, 1520.0, 1517.0, 1513.0, 1515.0, 1512.0, 1513.0, 1519.0, 1513.0, 1521.0, 1519.0, 1519.0, 1516.0, 1517.0, 1512.0, 1519.0, 1518.0, 1515.0, 1518.0, 1516.0, 1518.0, 1522.0, 1519.0, 1519.0, 1512.0, 1518.0, 1517.0, 1517.0, 1514.0, 1512.0, 1526.0, 1520.0, 1519.0, 1516.0, 1514.0, 1517.0, 1517.0, 1524.0, 1515.0, 1517.0, 1515.0, 1515.0, 1517.0, 1519.0, 1520.0, 1514.0, 1518.0, 1514.0, 1515.0, 1514.0, 1520.0, 1513.0, 1514.0, 1514.0, 1520.0, 1513.0, 1520.0, 1515.0, 1518.0, 1514.0, 1518.0, 1515.0, 1517.0, 1513.0, 1517.0, 1514.0, 1518.0, 1516.0, 1515.0, 1521.0, 1516.0, 1516.0, 1514.0, 1516.0, 1519.0, 1514.0, 1516.0, 1516.0, 1518.0, 1515.0, 1513.0, 1520.0, 1517.0, 1515.0, 1515.0, 1515.0, 1513.0, 1514.0, 1518.0, 1516.0, 1517.0, 1508.0, 1518.0, 1513.0, 1516.0, 1512.0, 1517.0, 1513.0, 1517.0, 1512.0, 1515.0, 1510.0, 1515.0, 1514.0, 1519.0, 1510.0, 1515.0, 1514.0, 1522.0, 1514.0, 1516.0, 1507.0, 1515.0, 1510.0, 1516.0, 1510.0, 1516.0, 1512.0, 1515.0, 1515.0, 1508.0, 1517.0, 1517.0, 1510.0, 1513.0, 1508.0, 1514.0, 1510.0, 1510.0, 1509.0, 1517.0, 1515.0, 1518.0, 1514.0, 1510.0, 1510.0, 1505.0, 1516.0, 1518.0, 1516.0, 1510.0, 1514.0, 1509.0, 1512.0, 1511.0, 1514.0, 1513.0, 1514.0, 1514.0, 1511.0, 1508.0, 1515.0, 1517.0, 1514.0, 1511.0, 1506.0, 1503.0, 1510.0, 1511.0, 1514.0, 1510.0, 1511.0, 1516.0, 1510.0, 1511.0, 1507.0, 1511.0, 1511.0, 1516.0, 1508.0, 1513.0, 1510.0, 1515.0, 1508.0, 1514.0, 1508.0, 1513.0, 1513.0, 1517.0, 1513.0, 1511.0, 1506.0, 1507.0, 1515.0, 1512.0, 1511.0, 1510.0, 1516.0, 1512.0, 1515.0, 1511.0, 1508.0, 1512.0, 1512.0, 1515.0, 1508.0, 1514.0, 1511.0, 1517.0, 1510.0, 1513.0, 1511.0, 1512.0, 1507.0, 1512.0, 1513.0, 1511.0, 1508.0, 1512.0, 1513.0, 1512.0, 1512.0, 1510.0, 1517.0, 1513.0, 1510.0, 1506.0, 1509.0, 1507.0, 1507.0, 1510.0, 1513.0, 1509.0, 1510.0]
    },
    "slices": {}
  }
}