{
  "AcquisitionMatrixPE": 70,
  "AcquisitionNumber": 1,
  "AcquisitionTime": "09:54:38.172500",
  "BandwidthPerPixelPhaseEncode": 38.873,
  "BaseResolution": 70,
  "BodyPartExamined": "HEAD",
  "ConsistencyInfo": "N4_VE11B_LATEST_20150530",
  "ConversionSoftware": "dcm2niix",
  "ConversionSoftwareVersion": "v1.0.20190410  GCC6.3.0",
  "DerivedVendorReportedEchoSpacing": 0.000489996,
  "DeviceSerialNumber": "66088",
  "DwellTime": 2.9e-06,
  "EchoTime": 0.03,
  "EchoTrainLength": 53,
  "EffectiveEchoSpacing": 0.000367497,
  "FlipAngle": 90,
  "ImageOrientationPatientDICOM": [0.998896, 0.0390918, -0.0260623, -0.0453596, 0.946965, -0.318118],
  "ImageType": [
    "ORIGINAL",
    "PRIMARY",
    "M",
    "ND",
    "NORM",
    "MOSAIC"
],
  "ImagingFrequency": 123.191,
  "InPlanePhaseEncodingDirectionDICOM": "COL",
  "InstitutionAddress": "Street_StreetNo_City_District_IR_ZIP",
  "InstitutionName": "Hospital",
  "InstitutionalDepartmentName": "Department",
  "MRAcquisitionType": "2D",
  "MagneticFieldStrength": 3,
  "Manufacturer": "Siemens",
  "ManufacturersModelName": "Prisma",
  "Modality": "MR",
  "ParallelReductionFactorInPlane": 2,
  "PartialFourier": 1,
  "PatientPosition": "HFS",
  "PercentPhaseFOV": 100,
  "PhaseEncodingDirection": "j-",
  "PhaseEncodingSteps": 105,
  "PhaseOversampling": 0.5,
  "PhaseResolution": 1,
  "PixelBandwidth": 2465,
  "ProcedureStepDescription": "NBML_Project_P-95001-Shirvaliloo",
  "ProtocolName": "ep2d_p2_Task_3.5_measurment:237",
  "PulseSequenceDetails": "%SiemensSeq%_ep2d_pace",
  "ReceiveCoilActiveElements": "HC1-7;NC1",
  "ReceiveCoilName": "HeadNeck_64",
  "ReconMatrixPE": 70,
  "RefLinesPE": 24,
  "RepetitionTime": 2,
  "SAR": 0.0878166,
  "ScanOptions": "FS",
  "ScanningSequence": "EP",
  "SequenceName": "_epfid2d1_70",
  "SequenceVariant": "SK_OSP",
  "SeriesDescription": "ep2d_p2_Task_3.5_measurment:237",
  "SeriesNumber": 10,
  "ShimSetting": [2613, -4501, -3227, 516, 63, -2, 7, -24],
  "SliceThickness": 3.5,
  "SliceTiming": [0.99, 0, 1.05, 0.06, 1.1075, 0.1175, 1.165, 0.175, 1.2225, 0.2325, 1.2825, 0.2925, 1.34, 0.35, 1.3975, 0.4075, 1.4575, 0.4675, 1.515, 0.525, 1.5725, 0.5825, 1.63, 0.64, 1.69, 0.7, 1.7475, 0.7575, 1.805, 0.815, 1.865, 0.875, 1.9225, 0.9325],
  "SoftwareVersions": "syngo_MR_E11",
  "SpacingBetweenSlices": 3.85,
  "StationName": "AWP66088",
  "TaskName": "categorySelectivity",
  "TotalReadoutTime": 0.0253573,
  "TxRefAmp": 234.708,
  "dcmmeta_affine": [
    [-3.538944721221924, -0.16070258617401123, -0.047140587121248245, 129.1709442138672],
    [-0.1384967565536499, 3.3549628257751465, -1.2279541492462158, -90.27825927734375],
    [-0.09233514964580536, 1.1270475387573242, 3.6486170291900635, -80.58671569824219],
    [0.0, 0.0, 0.0, 1.0]
],
  "dcmmeta_reorient_transform": [
    [0.0, -1.0, 0.0, 69.0],
    [1.0, 0.0, 0.0, 0.0],
    [0.0, 0.0, 1.0, 0.0],
    [0.0, 0.0, 0.0, 1.0]
],
  "dcmmeta_shape": [70, 70, 34, 237],
  "dcmmeta_slice_dim": 2,
  "dcmmeta_version": 0.6,
  "global": {
    "const": {
      "AccessionNumber": "MB",
      "AcquisitionMatrix": [70, 0, 0, 70],
      "AngioFlag": "N",
      "BitsAllocated": 16,
      "BitsStored": 12,
      "BodyPartExamined": "HEAD",
      "Columns": 420,
      "EchoNumbers": 1,
      "EchoTime": 30.0,
      "EchoTrainLength": 53,
      "FlipAngle": 90.0,
      "HighBit": 11,
      "ImageOrientationPatient": [0.99889568197765, 0.03909182723234, -0.0260623400722, -0.0453596015722, 0.94696530059363, -0.3181182579118],
      "ImagePositionPatient": [-709.27483838186, -752.56959536893, 210.57153416686],
      "ImageType": [
        "ORIGINAL",
        "PRIMARY",
        "M",
        "ND",
        "NORM",
        "MOSAIC"
],
      "ImagedNucleus": "1H",
      "ImagingFrequency": 123.191182,
      "InPlanePhaseEncodingDirection": "COL",
      "MRAcquisitionType": "2D",
      "MagneticFieldStrength": 3.0,
      "Manufacturer": "SIEMENS",
      "ManufacturerModelName": "Prisma",
      "Modality": "MR",
      "NumberOfAverages": 1.0,
      "NumberOfPhaseEncodingSteps": 105,
      "PercentPhaseFieldOfView": 100.0,
      "PercentSampling": 100.0,
      "PerformedProcedureStepStartTime": "084313.184000",
      "PhotometricInterpretation": "MONOCHROME2",
      "PixelBandwidth": 2465.0,
      "PixelRepresentation": 0,
      "PixelSpacing": [3.542857170105, 3.542857170105],
      "ProtocolName": "ep2d_p2_Task_3.5_measurment:237",
      "RepetitionTime": 2000.0,
      "Rows": 420,
      "SAR": 0.0878165488485,
      "SamplesPerPixel": 1,
      "ScanOptions": "FS",
      "ScanningSequence": "EP",
      "SequenceName": "*epfid2d1_70",
      "SequenceVariant": [
        "SK",
        "OSP"
],
      "SeriesDescription": "ep2d_p2_Task_3.5_measurment:237",
      "SeriesNumber": 10,
      "SeriesTime": "095527.485000",
      "SliceLocation": -49.158884188097,
      "SliceThickness": 3.5,
      "SmallestImagePixelValue": 0,
      "SoftwareVersions": "syngo MR E11",
      "SpacingBetweenSlices": 3.8500000907346,
      "SpecificCharacterSet": "ISO_IR 100",
      "StudyID": "1",
      "StudyTime": "084313.040000",
      "TransmitCoilName": "Body",
      "VariableFlipAngleFlag": "N",
      "WindowCenterWidthExplanation": "Algo1",
      "dBdt": 0.0},
    "slices": {}
  },
  "time": {
    "samples": {
      "AcquisitionNumber": [1, 2, 3, 4, 5, 6, 7, 8, 9, 10, 11, 12, 13, 14, 15, 16, 17, 18, 19, 20, 21, 22, 23, 24, 25, 26, 27, 28, 29, 30, 31, 32, 33, 34, 35, 36, 37, 38, 39, 40, 41, 42, 43, 44, 45, 46, 47, 48, 49, 50, 51, 52, 53, 54, 55, 56, 57, 58, 59, 60, 61, 62, 63, 64, 65, 66, 67, 68, 69, 70, 71, 72, 73, 74, 75, 76, 77, 78, 79, 80, 81, 82, 83, 84, 85, 86, 87, 88, 89, 90, 91, 92, 93, 94, 95, 96, 97, 98, 99, 100, 101, 102, 103, 104, 105, 106, 107, 108, 109, 110, 111, 112, 113, 114, 115, 116, 117, 118, 119, 120, 121, 122, 123, 124, 125, 126, 127, 128, 129, 130, 131, 132, 133, 134, 135, 136, 137, 138, 139, 140, 141, 142, 143, 144, 145, 146, 147, 148, 149, 150, 151, 152, 153, 154, 155, 156, 157, 158, 159, 160, 161, 162, 163, 164, 165, 166, 167, 168, 169, 170, 171, 172, 173, 174, 175, 176, 177, 178, 179, 180, 181, 182, 183, 184, 185, 186, 187, 188, 189, 190, 191, 192, 193, 194, 195, 196, 197, 198, 199, 200, 201, 202, 203, 204, 205, 206, 207, 208, 209, 210, 211, 212, 213, 214, 215, 216, 217, 218, 219, 220, 221, 222, 223, 224, 225, 226, 227, 228, 229, 230, 231, 232, 233, 234, 235, 236, 237],
      "AcquisitionTime": ["095438.172500", "095440.172500", "095442.172500", "095444.172500", "095446.172500", "095448.172500", "095450.172500", "095452.172500", "095454.172500", "095456.172500", "095458.172500", "095500.172500", "095502.172500", "095504.172500", "095506.172500", "095508.172500", "095510.172500", "095512.172500", "095514.172500", "095516.172500", "095518.172500", "095520.172500", "095522.172500", "095524.172500", "095526.172500", "095528.172500", "095530.172500", "095532.172500", "095534.172500", "095536.172500", "095538.172500", "095540.172500", "095542.172500", "095544.172500", "095546.172500", "095548.172500", "095550.172500", "095552.172500", "095554.172500", "095556.172500", "095558.172500", "095600.172500", "095602.172500", "095604.172500", "095606.172500", "095608.172500", "095610.172500", "095612.172500", "095614.172500", "095616.172500", "095618.172500", "095620.172500", "095622.172500", "095624.172500", "095626.172500", "095628.172500", "095630.172500", "095632.172500", "095634.172500", "095636.172500", "095638.172500", "095640.172500", "095642.172500", "095644.172500", "095646.172500", "095648.172500", "095650.172500", "095652.172500", "095654.172500", "095656.172500", "095658.172500", "095700.172500", "095702.172500", "095704.172500", "095706.172500", "095708.172500", "095710.172500", "095712.172500", "095714.172500", "095716.172500", "095718.172500", "095720.172500", "095722.172500", "095724.172500", "095726.172500", "095728.172500", "095730.172500", "095732.172500", "095734.172500", "095736.172500", "095738.172500", "095740.172500", "095742.172500", "095744.172500", "095746.172500", "095748.172500", "095750.172500", "095752.172500", "095754.172500", "095756.172500", "095758.172500", "095800.172500", "095802.172500", "095804.172500", "095806.172500", "095808.172500", "095810.172500", "095812.172500", "095814.172500", "095816.172500", "095818.172500", "095820.172500", "095822.172500", "095824.172500", "095826.172500", "095828.172500", "095830.172500", "095832.172500", "095834.172500", "095836.172500", "095838.172500", "095840.172500", "095842.172500", "095844.172500", "095846.172500", "095848.172500", "095850.172500", "095852.172500", "095854.172500", "095856.172500", "095858.172500", "095900.172500", "095902.172500", "095904.172500", "095906.172500", "095908.172500", "095910.172500", "095912.172500", "095914.172500", "095916.172500", "095918.172500", "095920.172500", "095922.172500", "095924.172500", "095926.172500", "095928.172500", "095930.172500", "095932.172500", "095934.172500", "095936.172500", "095938.172500", "095940.172500", "095942.172500", "095944.172500", "095946.172500", "095948.172500", "095950.172500", "095952.172500", "095954.172500", "095956.172500", "095958.172500", "100000.172500", "100002.172500", "100004.172500", "100006.172500", "100008.172500", "100010.172500", "100012.172500", "100014.172500", "100016.172500", "100018.172500", "100020.172500", "100022.172500", "100024.172500", "100026.172500", "100028.172500", "100030.172500", "100032.172500", "100034.172500", "100036.172500", "100038.172500", "100040.172500", "100042.172500", "100044.172500", "100046.172500", "100048.172500", "100050.172500", "100052.172500", "100054.172500", "100056.172500", "100058.172500", "100100.172500", "100102.172500", "100104.172500", "100106.172500", "100108.172500", "100110.172500", "100112.172500", "100114.172500", "100116.172500", "100118.172500", "100120.172500", "100122.172500", "100124.172500", "100126.172500", "100128.172500", "100130.172500", "100132.172500", "100134.172500", "100136.172500", "100138.172500", "100140.172500", "100142.172500", "100144.172500", "100146.172500", "100148.172500", "100150.172500", "100152.172500", "100154.172500", "100156.172500", "100158.172500", "100200.172500", "100202.172500", "100204.172500", "100206.172500", "100208.172500", "100210.172500", "100212.172500", "100214.172500", "100216.172500", "100218.172500", "100220.172500", "100222.172500", "100224.172500", "100226.172500", "100228.172500", "100230.172500"],
      "ContentTime": ["095527.489000", "095527.492000", "095527.494000", "095527.496000", "095527.499000", "095527.501000", "095527.504000", "095527.506000", "095527.508000", "095527.511000", "095527.513000", "095527.516000", "095527.518000", "095527.520000", "095527.523000", "095527.525000", "095527.528000", "095527.539000", "095527.541000", "095527.544000", "095527.546000", "095527.549000", "095527.551000", "095527.554000", "095607.483000", "095607.486000", "095607.489000", "095607.491000", "095607.494000", "095607.496000", "095607.498000", "095607.501000", "095607.503000", "095607.506000", "095607.508000", "095607.511000", "095607.513000", "095607.515000", "095607.518000", "095607.520000", "095607.523000", "095607.525000", "095607.527000", "095607.534000", "095647.483000", "095647.486000", "095647.488000", "095647.491000", "095647.493000", "095647.496000", "095647.498000", "095647.500000", "095647.503000", "095647.505000", "095647.507000", "095647.510000", "095647.512000", "095647.514000", "095647.517000", "095647.519000", "095647.522000", "095647.524000", "095647.527000", "095647.529000", "095727.484000", "095727.487000", "095727.489000", "095727.491000", "095727.494000", "095727.496000", "095727.499000", "095727.501000", "095727.503000", "095727.506000", "095727.508000", "095727.510000", "095727.513000", "095727.515000", "095727.518000", "095727.520000", "095727.523000", "095727.525000", "095727.527000", "095727.530000", "095807.484000", "095807.487000", "095807.489000", "095807.492000", "095807.494000", "095807.496000", "095807.499000", "095807.501000", "095807.504000", "095807.506000", "095807.508000", "095807.511000", "095807.513000", "095807.516000", "095807.518000", "095807.520000", "095807.523000", "095807.525000", "095807.527000", "095807.530000", "095847.483000", "095847.486000", "095847.489000", "095847.491000", "095847.493000", "095847.496000", "095847.498000", "095847.501000", "095847.503000", "095847.505000", "095847.508000", "095847.510000", "095847.512000", "095847.515000", "095847.517000", "095847.520000", "095847.522000", "095847.524000", "095847.527000", "095847.529000", "095927.484000", "095927.486000", "095927.489000", "095927.492000", "095927.494000", "095927.497000", "095927.499000", "095927.502000", "095927.505000", "095927.507000", "095927.510000", "095927.512000", "095927.515000", "095927.517000", "095927.520000", "095927.522000", "095927.524000", "095927.527000", "095927.529000", "095927.532000", "100007.484000", "100007.486000", "100007.489000", "100007.491000", "100007.493000", "100007.496000", "100007.498000", "100007.500000", "100007.503000", "100007.505000", "100007.508000", "100007.510000", "100007.512000", "100007.515000", "100007.517000", "100007.520000", "100007.522000", "100007.525000", "100007.527000", "100007.529000", "100047.484000", "100047.486000", "100047.489000", "100047.491000", "100047.493000", "100047.496000", "100047.498000", "100047.501000", "100047.503000", "100047.506000", "100047.508000", "100047.511000", "100047.513000", "100047.515000", "100047.524000", "100047.526000", "100047.529000", "100047.531000", "100047.534000", "100047.536000", "100127.483000", "100127.486000", "100127.488000", "100127.491000", "100127.493000", "100127.496000", "100127.498000", "100127.500000", "100127.503000", "100127.505000", "100127.508000", "100127.510000", "100127.512000", "100127.515000", "100127.517000", "100127.520000", "100127.522000", "100127.525000", "100127.527000", "100127.529000", "100207.483000", "100207.485000", "100207.488000", "100207.491000", "100207.493000", "100207.496000", "100207.498000", "100207.501000", "100207.503000", "100207.505000", "100207.508000", "100207.510000", "100207.513000", "100207.515000", "100207.518000", "100207.520000", "100207.523000", "100207.525000", "100207.528000", "100207.530000", "100231.588000", "100231.591000", "100231.593000", "100231.596000", "100231.598000", "100231.601000", "100231.603000", "100231.606000", "100231.608000", "100231.611000", "100231.613000", "100231.616000", "100231.619000"],
      "InstanceCreationTime": ["095527.489000", "095527.492000", "095527.494000", "095527.496000", "095527.499000", "095527.501000", "095527.504000", "095527.506000", "095527.508000", "095527.511000", "095527.513000", "095527.516000", "095527.518000", "095527.520000", "095527.523000", "095527.525000", "095527.528000", "095527.539000", "095527.541000", "095527.544000", "095527.546000", "095527.549000", "095527.551000", "095527.554000", "095607.483000", "095607.486000", "095607.489000", "095607.491000", "095607.494000", "095607.496000", "095607.498000", "095607.501000", "095607.503000", "095607.506000", "095607.508000", "095607.511000", "095607.513000", "095607.515000", "095607.518000", "095607.520000", "095607.523000", "095607.525000", "095607.527000", "095607.534000", "095647.483000", "095647.486000", "095647.488000", "095647.491000", "095647.493000", "095647.496000", "095647.498000", "095647.500000", "095647.503000", "095647.505000", "095647.507000", "095647.510000", "095647.512000", "095647.514000", "095647.517000", "095647.519000", "095647.522000", "095647.524000", "095647.527000", "095647.529000", "095727.484000", "095727.487000", "095727.489000", "095727.491000", "095727.494000", "095727.496000", "095727.499000", "095727.501000", "095727.503000", "095727.506000", "095727.508000", "095727.510000", "095727.513000", "095727.515000", "095727.518000", "095727.520000", "095727.523000", "095727.525000", "095727.527000", "095727.530000", "095807.484000", "095807.487000", "095807.489000", "095807.492000", "095807.494000", "095807.496000", "095807.499000", "095807.501000", "095807.504000", "095807.506000", "095807.508000", "095807.511000", "095807.513000", "095807.516000", "095807.518000", "095807.520000", "095807.523000", "095807.525000", "095807.527000", "095807.530000", "095847.483000", "095847.486000", "095847.489000", "095847.491000", "095847.493000", "095847.496000", "095847.498000", "095847.501000", "095847.503000", "095847.505000", "095847.508000", "095847.510000", "095847.512000", "095847.515000", "095847.517000", "095847.520000", "095847.522000", "095847.524000", "095847.527000", "095847.529000", "095927.484000", "095927.486000", "095927.489000", "095927.492000", "095927.494000", "095927.497000", "095927.499000", "095927.502000", "095927.505000", "095927.507000", "095927.510000", "095927.512000", "095927.515000", "095927.517000", "095927.520000", "095927.522000", "095927.524000", "095927.527000", "095927.529000", "095927.532000", "100007.484000", "100007.486000", "100007.489000", "100007.491000", "100007.493000", "100007.496000", "100007.498000", "100007.500000", "100007.503000", "100007.505000", "100007.508000", "100007.510000", "100007.512000", "100007.515000", "100007.517000", "100007.520000", "100007.522000", "100007.525000", "100007.527000", "100007.529000", "100047.484000", "100047.486000", "100047.489000", "100047.491000", "100047.493000", "100047.496000", "100047.498000", "100047.501000", "100047.503000", "100047.506000", "100047.508000", "100047.511000", "100047.513000", "100047.515000", "100047.524000", "100047.526000", "100047.529000", "100047.531000", "100047.534000", "100047.536000", "100127.483000", "100127.486000", "100127.488000", "100127.491000", "100127.493000", "100127.496000", "100127.498000", "100127.500000", "100127.503000", "100127.505000", "100127.508000", "100127.510000", "100127.512000", "100127.515000", "100127.517000", "100127.520000", "100127.522000", "100127.525000", "100127.527000", "100127.529000", "100207.483000", "100207.485000", "100207.488000", "100207.491000", "100207.493000", "100207.496000", "100207.498000", "100207.501000", "100207.503000", "100207.505000", "100207.508000", "100207.510000", "100207.513000", "100207.515000", "100207.518000", "100207.520000", "100207.523000", "100207.525000", "100207.528000", "100207.530000", "100231.588000", "100231.591000", "100231.593000", "100231.596000", "100231.598000", "100231.601000", "100231.603000", "100231.606000", "100231.608000", "100231.611000", "100231.613000", "100231.616000", "100231.619000"],
      "InstanceNumber": [1, 2, 3, 4, 5, 6, 7, 8, 9, 10, 11, 12, 13, 14, 15, 16, 17, 18, 19, 20, 21, 22, 23, 24, 25, 26, 27, 28, 29, 30, 31, 32, 33, 34, 35, 36, 37, 38, 39, 40, 41, 42, 43, 44, 45, 46, 47, 48, 49, 50, 51, 52, 53, 54, 55, 56, 57, 58, 59, 60, 61, 62, 63, 64, 65, 66, 67, 68, 69, 70, 71, 72, 73, 74, 75, 76, 77, 78, 79, 80, 81, 82, 83, 84, 85, 86, 87, 88, 89, 90, 91, 92, 93, 94, 95, 96, 97, 98, 99, 100, 101, 102, 103, 104, 105, 106, 107, 108, 109, 110, 111, 112, 113, 114, 115, 116, 117, 118, 119, 120, 121, 122, 123, 124, 125, 126, 127, 128, 129, 130, 131, 132, 133, 134, 135, 136, 137, 138, 139, 140, 141, 142, 143, 144, 145, 146, 147, 148, 149, 150, 151, 152, 153, 154, 155, 156, 157, 158, 159, 160, 161, 162, 163, 164, 165, 166, 167, 168, 169, 170, 171, 172, 173, 174, 175, 176, 177, 178, 179, 180, 181, 182, 183, 184, 185, 186, 187, 188, 189, 190, 191, 192, 193, 194, 195, 196, 197, 198, 199, 200, 201, 202, 203, 204, 205, 206, 207, 208, 209, 210, 211, 212, 213, 214, 215, 216, 217, 218, 219, 220, 221, 222, 223, 224, 225, 226, 227, 228, 229, 230, 231, 232, 233, 234, 235, 236, 237],
      "LargestImagePixelValue": [1745, 1612, 1811, 1646, 1663, 1684, 1563, 1575, 1635, 1835, 1606, 1579, 2115, 1550, 1557, 1712, 1553, 1639, 1772, 1677, 1725, 1550, 1851, 1573, 1592, 1563, 1708, 1729, 1732, 1666, 1663, 1584, 1612, 1584, 1625, 1565, 1715, 1720, 1782, 1543, 1638, 1605, 1618, 1588, 1741, 1561, 1606, 1600, 1587, 1889, 1635, 1738, 1635, 1656, 1637, 1688, 1548, 1701, 1553, 1660, 1657, 1814, 1572, 1541, 1747, 1691, 1568, 1563, 1851, 1585, 1588, 1744, 1630, 1672, 1724, 1603, 1598, 1731, 1600, 1647, 2079, 1828, 1625, 1754, 1615, 1672, 1548, 1686, 1552, 1773, 1622, 1585, 1726, 1609, 1602, 1565, 1671, 1620, 1679, 1533, 1957, 1676, 1753, 1617, 1667, 1616, 1745, 1574, 1585, 1843, 1584, 1746, 1616, 1577, 1631, 1766, 1635, 1599, 1619, 1722, 1577, 1744, 1646, 2023, 1572, 1800, 1549, 1608, 1698, 1806, 1549, 1590, 1766, 1557, 1615, 1709, 1800, 1711, 1837, 1614, 1690, 1681, 1661, 1777, 1623, 1662, 1585, 1665, 1980, 1670, 1753, 1595, 1845, 1718, 1738, 1808, 1759, 1595, 1588, 1740, 1983, 1809, 1626, 1785, 1582, 1724, 1560, 1744, 1612, 1557, 1881, 1816, 1904, 1634, 1573, 1714, 1676, 1567, 1640, 1569, 1860, 1636, 1750, 1607, 1565, 1615, 1746, 1766, 1607, 2189, 1961, 1678, 1531, 1648, 1764, 1685, 1855, 1597, 1664, 1588, 1627, 1585, 1564, 1636, 1647, 1772, 1602, 1792, 1631, 1600, 1713, 1540, 1668, 1569, 1815, 1767, 1848, 1588, 1702, 1617, 1739, 1622, 1573, 1752, 1598, 1736, 1571, 1769, 1585, 1641, 1900, 1545, 1611, 1731, 1580, 1613, 1897],
      "WindowCenter": [688.0, 685.0, 686.0, 684.0, 684.0, 684.0, 685.0, 686.0, 687.0, 687.0, 685.0, 686.0, 686.0, 683.0, 686.0, 685.0, 685.0, 684.0, 685.0, 686.0, 685.0, 683.0, 685.0, 684.0, 683.0, 684.0, 686.0, 684.0, 687.0, 686.0, 686.0, 685.0, 686.0, 686.0, 685.0, 685.0, 686.0, 685.0, 685.0, 684.0, 687.0, 684.0, 684.0, 684.0, 685.0, 684.0, 684.0, 684.0, 686.0, 685.0, 684.0, 686.0, 685.0, 686.0, 683.0, 686.0, 686.0, 686.0, 685.0, 685.0, 685.0, 685.0, 684.0, 685.0, 684.0, 685.0, 685.0, 686.0, 686.0, 684.0, 684.0, 686.0, 686.0, 684.0, 684.0, 685.0, 685.0, 684.0, 685.0, 685.0, 685.0, 686.0, 685.0, 687.0, 685.0, 685.0, 684.0, 686.0, 684.0, 686.0, 684.0, 684.0, 684.0, 684.0, 684.0, 683.0, 687.0, 684.0, 685.0, 684.0, 686.0, 685.0, 686.0, 684.0, 685.0, 685.0, 685.0, 685.0, 684.0, 685.0, 685.0, 686.0, 685.0, 686.0, 684.0, 686.0, 685.0, 685.0, 685.0, 685.0, 684.0, 685.0, 685.0, 686.0, 683.0, 685.0, 684.0, 686.0, 685.0, 685.0, 684.0, 684.0, 685.0, 684.0, 684.0, 686.0, 685.0, 685.0, 685.0, 684.0, 683.0, 684.0, 686.0, 686.0, 684.0, 684.0, 683.0, 684.0, 684.0, 682.0, 686.0, 687.0, 686.0, 685.0, 684.0, 684.0, 684.0, 684.0, 684.0, 685.0, 684.0, 687.0, 685.0, 685.0, 684.0, 684.0, 683.0, 685.0, 684.0, 685.0, 685.0, 683.0, 686.0, 685.0, 684.0, 685.0, 685.0, 685.0, 685.0, 685.0, 685.0, 684.0, 684.0, 683.0, 683.0, 684.0, 684.0, 684.0, 683.0, 683.0, 684.0, 687.0, 686.0, 684.0, 683.0, 684.0, 683.0, 683.0, 685.0, 683.0, 682.0, 683.0, 683.0, 684.0, 684.0, 684.0, 683.0, 684.0, 684.0, 684.0, 685.0, 684.0, 684.0, 683.0, 685.0, 682.0, 686.0, 686.0, 686.0, 684.0, 684.0, 684.0, 683.0, 687.0, 684.0, 683.0, 683.0, 684.0, 683.0, 685.0, 684.0, 683.0, 684.0, 685.0, 684.0, 683.0, 683.0],
      "WindowWidth": [1509.0, 1501.0, 1502.0, 1498.0, 1497.0, 1498.0, 1500.0, 1502.0, 1505.0, 1506.0, 1500.0, 1501.0, 1503.0, 1496.0, 1503.0, 1502.0, 1500.0, 1498.0, 1499.0, 1502.0, 1500.0, 1496.0, 1499.0, 1497.0, 1495.0, 1496.0, 1502.0, 1498.0, 1505.0, 1504.0, 1501.0, 1499.0, 1501.0, 1502.0, 1499.0, 1499.0, 1502.0, 1501.0, 1501.0, 1497.0, 1505.0, 1499.0, 1497.0, 1498.0, 1501.0, 1497.0, 1497.0, 1498.0, 1503.0, 1501.0, 1498.0, 1501.0, 1500.0, 1502.0, 1495.0, 1503.0, 1503.0, 1504.0, 1500.0, 1501.0, 1500.0, 1500.0, 1498.0, 1500.0, 1499.0, 1500.0, 1501.0, 1502.0, 1504.0, 1499.0, 1499.0, 1502.0, 1501.0, 1498.0, 1499.0, 1500.0, 1499.0, 1499.0, 1499.0, 1499.0, 1499.0, 1504.0, 1502.0, 1504.0, 1499.0, 1501.0, 1499.0, 1503.0, 1499.0, 1502.0, 1498.0, 1498.0, 1499.0, 1498.0, 1498.0, 1494.0, 1506.0, 1499.0, 1499.0, 1497.0, 1502.0, 1499.0, 1502.0, 1497.0, 1499.0, 1499.0, 1500.0, 1499.0, 1498.0, 1500.0, 1499.0, 1502.0, 1500.0, 1501.0, 1498.0, 1502.0, 1499.0, 1499.0, 1500.0, 1500.0, 1498.0, 1500.0, 1500.0, 1503.0, 1496.0, 1500.0, 1498.0, 1503.0, 1500.0, 1499.0, 1497.0, 1498.0, 1500.0, 1498.0, 1498.0, 1501.0, 1499.0, 1502.0, 1502.0, 1498.0, 1495.0, 1498.0, 1504.0, 1503.0, 1496.0, 1497.0, 1494.0, 1498.0, 1499.0, 1493.0, 1502.0, 1505.0, 1502.0, 1499.0, 1497.0, 1498.0, 1498.0, 1499.0, 1498.0, 1499.0, 1497.0, 1505.0, 1500.0, 1500.0, 1496.0, 1498.0, 1496.0, 1500.0, 1499.0, 1499.0, 1500.0, 1493.0, 1502.0, 1502.0, 1498.0, 1500.0, 1501.0, 1499.0, 1500.0, 1500.0, 1500.0, 1496.0, 1497.0, 1495.0, 1495.0, 1496.0, 1498.0, 1497.0, 1494.0, 1495.0, 1497.0, 1506.0, 1504.0, 1499.0, 1496.0, 1497.0, 1495.0, 1496.0, 1500.0, 1495.0, 1493.0, 1494.0, 1496.0, 1496.0, 1498.0, 1498.0, 1496.0, 1498.0, 1498.0, 1498.0, 1499.0, 1496.0, 1498.0, 1495.0, 1499.0, 1493.0, 1503.0, 1503.0, 1502.0, 1497.0, 1496.0, 1497.0, 1496.0, 1505.0, 1497.0, 1495.0, 1494.0, 1496.0, 1495.0, 1499.0, 1499.0, 1494.0, 1497.0, 1498.0, 1497.0, 1496.0, 1495.0]
    },
    "slices": {}
  }
}