{
  "AcquisitionMatrixPE": 70,
  "AcquisitionNumber": 1,
  "AcquisitionTime": "11:44:2.112500",
  "BandwidthPerPixelPhaseEncode": 38.873,
  "BaseResolution": 70,
  "BodyPartExamined": "HEAD",
  "ConsistencyInfo": "N4_VE11B_LATEST_20150530",
  "ConversionSoftware": "dcm2niix",
  "ConversionSoftwareVersion": "v1.0.20190410  GCC6.3.0",
  "DerivedVendorReportedEchoSpacing": 0.000489996,
  "DeviceSerialNumber": "66088",
  "DwellTime": 2.9e-06,
  "EchoTime": 0.03,
  "EchoTrainLength": 53,
  "EffectiveEchoSpacing": 0.000367497,
  "FlipAngle": 90,
  "ImageOrientationPatientDICOM": [0.999372, -0.0239625, -0.026089, 0.00872134, 0.880253, -0.474424],
  "ImageType": [
    "ORIGINAL",
    "PRIMARY",
    "M",
    "ND",
    "NORM",
    "MOSAIC"
],
  "ImagingFrequency": 123.191,
  "InPlanePhaseEncodingDirectionDICOM": "COL",
  "InstitutionAddress": "Street_StreetNo_City_District_IR_ZIP",
  "InstitutionName": "NBML",
  "InstitutionalDepartmentName": "Department",
  "MRAcquisitionType": "2D",
  "MagneticFieldStrength": 3,
  "Manufacturer": "Siemens",
  "ManufacturersModelName": "Prisma",
  "Modality": "MR",
  "ParallelReductionFactorInPlane": 2,
  "PartialFourier": 1,
  "PatientPosition": "HFS",
  "PercentPhaseFOV": 100,
  "PhaseEncodingDirection": "j-",
  "PhaseEncodingSteps": 105,
  "PhaseOversampling": 0.5,
  "PhaseResolution": 1,
  "PixelBandwidth": 2465,
  "ProcedureStepDescription": "NBML_Project_P-96169-Ebrahiminiya",
  "ProtocolName": "ep2d_p2_Task_3.5_measurment:237",
  "PulseSequenceDetails": "%SiemensSeq%_ep2d_pace",
  "ReceiveCoilActiveElements": "HC1-7;NC1",
  "ReceiveCoilName": "HeadNeck_64",
  "ReconMatrixPE": 70,
  "RefLinesPE": 24,
  "RepetitionTime": 2,
  "SAR": 0.0877137,
  "ScanOptions": "FS",
  "ScanningSequence": "EP",
  "SequenceName": "_epfid2d1_70",
  "SequenceVariant": "SK_OSP",
  "SeriesDescription": "ep2d_p2_Task_3.5_measurment:237",
  "SeriesNumber": 9,
  "ShimSetting": [2592, -4416, -3267, 350, 4, 92, 1, 26],
  "SliceThickness": 3.5,
  "SliceTiming": [0.99, 0, 1.0475, 0.0575, 1.1075, 0.1175, 1.165, 0.175, 1.2225, 0.2325, 1.2825, 0.2925, 1.34, 0.35, 1.3975, 0.4075, 1.455, 0.465, 1.515, 0.525, 1.5725, 0.5825, 1.63, 0.64, 1.69, 0.7, 1.7475, 0.7575, 1.805, 0.815, 1.8625, 0.8725, 1.9225, 0.9325],
  "SoftwareVersions": "syngo_MR_E11",
  "SpacingBetweenSlices": 3.85,
  "StationName": "AWP66088",
  "TaskName": "categorySelectivity",
  "TotalReadoutTime": 0.0253573,
  "TxRefAmp": 245.08,
  "dcmmeta_affine": [
    [-3.5406336784362793, 0.0308984462171793, -0.13218334317207336, 126.00667572021484],
    [0.08489586412906647, 3.1186118125915527, -1.8245092630386353, -80.24187469482422],
    [-0.09242962300777435, 1.6808158159255981, 3.38765287399292, -91.57656860351562],
    [0.0, 0.0, 0.0, 1.0]
],
  "dcmmeta_reorient_transform": [
    [0.0, -1.0, 0.0, 69.0],
    [1.0, 0.0, 0.0, 0.0],
    [0.0, 0.0, 1.0, 0.0],
    [0.0, 0.0, 0.0, 1.0]
],
  "dcmmeta_shape": [70, 70, 34, 237],
  "dcmmeta_slice_dim": 2,
  "dcmmeta_version": 0.6,
  "global": {
    "const": {
      "AccessionNumber": "M.BRZ",
      "AcquisitionMatrix": [70, 0, 0, 70],
      "AngioFlag": "N",
      "BitsAllocated": 16,
      "BitsStored": 12,
      "BodyPartExamined": "HEAD",
      "Columns": 420,
      "EchoNumbers": 1,
      "EchoTime": 30.0,
      "EchoTrainLength": 53,
      "FlipAngle": 90.0,
      "HighBit": 11,
      "ImageOrientationPatient": [0.99937238321893, -0.0239625416044, -0.0260890064812, 0.00872133538138, 0.88025336090612, -0.4744238178282],
      "ImagePositionPatient": [-753.15677674331, -665.84265969278, 334.71767619968],
      "ImageType": [
        "ORIGINAL",
        "PRIMARY",
        "M",
        "ND",
        "NORM",
        "MOSAIC"
],
      "ImagedNucleus": "1H",
      "ImagingFrequency": 123.191152,
      "InPlanePhaseEncodingDirection": "COL",
      "MRAcquisitionType": "2D",
      "MagneticFieldStrength": 3.0,
      "Manufacturer": "SIEMENS",
      "ManufacturerModelName": "Prisma",
      "Modality": "MR",
      "NumberOfAverages": 1.0,
      "NumberOfPhaseEncodingSteps": 105,
      "PercentPhaseFieldOfView": 100.0,
      "PercentSampling": 100.0,
      "PerformedProcedureStepStartTime": "104422.814000",
      "PhotometricInterpretation": "MONOCHROME2",
      "PixelBandwidth": 2465.0,
      "PixelRepresentation": 0,
      "PixelSpacing": [3.542857170105, 3.542857170105],
      "ProtocolName": "ep2d_p2_Task_3.5_measurment:237",
      "RepetitionTime": 2000.0,
      "Rows": 420,
      "SAR": 0.08771370424282,
      "SamplesPerPixel": 1,
      "ScanOptions": "FS",
      "ScanningSequence": "EP",
      "SequenceName": "*epfid2d1_70",
      "SequenceVariant": [
        "SK",
        "OSP"
],
      "SeriesDescription": "ep2d_p2_Task_3.5_measurment:237",
      "SeriesNumber": 9,
      "SeriesTime": "114440.324000",
      "SliceLocation": -46.878850934155,
      "SliceThickness": 3.5,
      "SmallestImagePixelValue": 0,
      "SoftwareVersions": "syngo MR E11",
      "SpacingBetweenSlices": 3.8499998368259,
      "SpecificCharacterSet": "ISO_IR 100",
      "StudyID": "1",
      "StudyTime": "104422.743000",
      "TransmitCoilName": "Body",
      "VariableFlipAngleFlag": "N",
      "WindowCenterWidthExplanation": "Algo1",
      "dBdt": 0.0},
    "slices": {}
  },
  "time": {
    "samples": {
      "AcquisitionNumber": [1, 2, 3, 4, 5, 6, 7, 8, 9, 10, 11, 12, 13, 14, 15, 16, 17, 18, 19, 20, 21, 22, 23, 24, 25, 26, 27, 28, 29, 30, 31, 32, 33, 34, 35, 36, 37, 38, 39, 40, 41, 42, 43, 44, 45, 46, 47, 48, 49, 50, 51, 52, 53, 54, 55, 56, 57, 58, 59, 60, 61, 62, 63, 64, 65, 66, 67, 68, 69, 70, 71, 72, 73, 74, 75, 76, 77, 78, 79, 80, 81, 82, 83, 84, 85, 86, 87, 88, 89, 90, 91, 92, 93, 94, 95, 96, 97, 98, 99, 100, 101, 102, 103, 104, 105, 106, 107, 108, 109, 110, 111, 112, 113, 114, 115, 116, 117, 118, 119, 120, 121, 122, 123, 124, 125, 126, 127, 128, 129, 130, 131, 132, 133, 134, 135, 136, 137, 138, 139, 140, 141, 142, 143, 144, 145, 146, 147, 148, 149, 150, 151, 152, 153, 154, 155, 156, 157, 158, 159, 160, 161, 162, 163, 164, 165, 166, 167, 168, 169, 170, 171, 172, 173, 174, 175, 176, 177, 178, 179, 180, 181, 182, 183, 184, 185, 186, 187, 188, 189, 190, 191, 192, 193, 194, 195, 196, 197, 198, 199, 200, 201, 202, 203, 204, 205, 206, 207, 208, 209, 210, 211, 212, 213, 214, 215, 216, 217, 218, 219, 220, 221, 222, 223, 224, 225, 226, 227, 228, 229, 230, 231, 232, 233, 234, 235, 236, 237],
      "AcquisitionTime": ["114402.112500", "114404.112500", "114406.112500", "114408.112500", "114410.112500", "114412.112500", "114414.112500", "114416.112500", "114418.112500", "114420.112500", "114422.112500", "114424.112500", "114426.112500", "114428.112500", "114430.112500", "114432.112500", "114434.112500", "114436.112500", "114438.112500", "114440.112500", "114442.112500", "114444.112500", "114446.112500", "114448.112500", "114450.112500", "114452.112500", "114454.112500", "114456.112500", "114458.112500", "114500.112500", "114502.112500", "114504.112500", "114506.112500", "114508.112500", "114510.112500", "114512.112500", "114514.112500", "114516.112500", "114518.112500", "114520.112500", "114522.112500", "114524.112500", "114526.112500", "114528.112500", "114530.112500", "114532.112500", "114534.112500", "114536.112500", "114538.112500", "114540.112500", "114542.112500", "114544.112500", "114546.112500", "114548.112500", "114550.112500", "114552.112500", "114554.112500", "114556.112500", "114558.112500", "114600.112500", "114602.112500", "114604.112500", "114606.112500", "114608.112500", "114610.112500", "114612.112500", "114614.112500", "114616.112500", "114618.112500", "114620.112500", "114622.112500", "114624.112500", "114626.112500", "114628.112500", "114630.112500", "114632.112500", "114634.112500", "114636.112500", "114638.112500", "114640.112500", "114642.112500", "114644.112500", "114646.112500", "114648.112500", "114650.112500", "114652.112500", "114654.112500", "114656.112500", "114658.112500", "114700.112500", "114702.112500", "114704.112500", "114706.112500", "114708.112500", "114710.112500", "114712.112500", "114714.112500", "114716.112500", "114718.112500", "114720.112500", "114722.112500", "114724.112500", "114726.112500", "114728.112500", "114730.112500", "114732.112500", "114734.112500", "114736.112500", "114738.112500", "114740.112500", "114742.112500", "114744.112500", "114746.112500", "114748.112500", "114750.112500", "114752.112500", "114754.112500", "114756.112500", "114758.112500", "114800.112500", "114802.112500", "114804.112500", "114806.112500", "114808.112500", "114810.112500", "114812.112500", "114814.112500", "114816.112500", "114818.112500", "114820.112500", "114822.112500", "114824.112500", "114826.112500", "114828.112500", "114830.112500", "114832.112500", "114834.112500", "114836.112500", "114838.112500", "114840.112500", "114842.112500", "114844.112500", "114846.112500", "114848.112500", "114850.112500", "114852.112500", "114854.112500", "114856.112500", "114858.112500", "114900.112500", "114902.112500", "114904.112500", "114906.112500", "114908.112500", "114910.112500", "114912.112500", "114914.112500", "114916.112500", "114918.112500", "114920.112500", "114922.112500", "114924.112500", "114926.112500", "114928.112500", "114930.112500", "114932.112500", "114934.112500", "114936.112500", "114938.112500", "114940.112500", "114942.112500", "114944.112500", "114946.112500", "114948.112500", "114950.112500", "114952.112500", "114954.112500", "114956.112500", "114958.112500", "115000.112500", "115002.112500", "115004.112500", "115006.112500", "115008.112500", "115010.112500", "115012.112500", "115014.112500", "115016.112500", "115018.112500", "115020.112500", "115022.112500", "115024.112500", "115026.112500", "115028.112500", "115030.112500", "115032.112500", "115034.112500", "115036.112500", "115038.112500", "115040.112500", "115042.112500", "115044.112500", "115046.112500", "115048.112500", "115050.112500", "115052.112500", "115054.112500", "115056.112500", "115058.112500", "115100.112500", "115102.112500", "115104.112500", "115106.112500", "115108.112500", "115110.112500", "115112.112500", "115114.112500", "115116.112500", "115118.112500", "115120.112500", "115122.112500", "115124.112500", "115126.112500", "115128.112500", "115130.112500", "115132.112500", "115134.112500", "115136.112500", "115138.112500", "115140.112500", "115142.112500", "115144.112500", "115146.112500", "115148.112500", "115150.112500", "115152.112500", "115154.112500"],
      "ContentTime": ["114440.328000", "114440.332000", "114440.344000", "114440.351000", "114440.354000", "114440.357000", "114440.360000", "114440.363000", "114440.366000", "114440.369000", "114440.372000", "114440.375000", "114440.378000", "114440.381000", "114440.384000", "114440.387000", "114440.390000", "114440.393000", "114440.396000", "114520.321000", "114520.324000", "114520.326000", "114520.329000", "114520.331000", "114520.333000", "114520.336000", "114520.338000", "114520.340000", "114520.343000", "114520.345000", "114520.347000", "114520.350000", "114520.352000", "114520.354000", "114520.357000", "114520.359000", "114520.361000", "114520.364000", "114520.366000", "114600.322000", "114600.324000", "114600.327000", "114600.329000", "114600.332000", "114600.335000", "114600.337000", "114600.340000", "114600.342000", "114600.344000", "114600.347000", "114600.357000", "114600.359000", "114600.362000", "114600.364000", "114600.366000", "114600.369000", "114600.371000", "114600.373000", "114600.376000", "114640.323000", "114640.326000", "114640.330000", "114640.333000", "114640.335000", "114640.338000", "114640.341000", "114640.344000", "114640.347000", "114640.350000", "114640.354000", "114640.357000", "114640.360000", "114640.363000", "114640.366000", "114640.369000", "114640.371000", "114640.374000", "114640.378000", "114640.395000", "114720.321000", "114720.324000", "114720.326000", "114720.329000", "114720.331000", "114720.333000", "114720.336000", "114720.338000", "114720.340000", "114720.343000", "114720.345000", "114720.347000", "114720.350000", "114720.352000", "114720.354000", "114720.357000", "114720.359000", "114720.362000", "114720.364000", "114720.366000", "114800.323000", "114800.326000", "114800.329000", "114800.331000", "114800.334000", "114800.336000", "114800.339000", "114800.341000", "114800.344000", "114800.346000", "114800.349000", "114800.351000", "114800.354000", "114800.356000", "114800.359000", "114800.361000", "114800.364000", "114800.366000", "114800.369000", "114800.371000", "114840.322000", "114840.325000", "114840.328000", "114840.331000", "114840.334000", "114840.337000", "114840.340000", "114840.343000", "114840.346000", "114840.349000", "114840.352000", "114840.355000", "114840.358000", "114840.361000", "114840.364000", "114840.367000", "114840.370000", "114840.373000", "114840.376000", "114840.379000", "114920.322000", "114920.324000", "114920.327000", "114920.329000", "114920.332000", "114920.334000", "114920.337000", "114920.339000", "114920.342000", "114920.344000", "114920.347000", "114920.349000", "114920.352000", "114920.354000", "114920.357000", "114920.359000", "114920.362000", "114920.364000", "114920.367000", "114920.369000", "115000.323000", "115000.325000", "115000.328000", "115000.330000", "115000.333000", "115000.335000", "115000.338000", "115000.340000", "115000.343000", "115000.345000", "115000.348000", "115000.350000", "115000.352000", "115000.355000", "115000.357000", "115000.360000", "115000.363000", "115000.365000", "115000.368000", "115000.370000", "115040.322000", "115040.325000", "115040.328000", "115040.331000", "115040.335000", "115040.338000", "115040.341000", "115040.344000", "115040.347000", "115040.350000", "115040.353000", "115040.356000", "115040.359000", "115040.362000", "115040.365000", "115040.372000", "115040.377000", "115040.381000", "115040.385000", "115040.388000", "115120.321000", "115120.324000", "115120.327000", "115120.329000", "115120.332000", "115120.334000", "115120.337000", "115120.339000", "115120.342000", "115120.344000", "115120.347000", "115120.349000", "115120.352000", "115120.354000", "115120.356000", "115120.359000", "115120.361000", "115120.364000", "115120.366000", "115120.369000", "115155.794000", "115155.797000", "115155.800000", "115155.803000", "115155.805000", "115155.808000", "115155.810000", "115155.813000", "115155.815000", "115155.818000", "115155.820000", "115155.823000", "115155.827000", "115155.830000", "115155.832000", "115155.837000", "115155.840000", "115155.843000"],
      "InstanceCreationTime": ["114440.328000", "114440.332000", "114440.344000", "114440.351000", "114440.354000", "114440.357000", "114440.360000", "114440.363000", "114440.366000", "114440.369000", "114440.372000", "114440.375000", "114440.378000", "114440.381000", "114440.384000", "114440.387000", "114440.390000", "114440.393000", "114440.396000", "114520.321000", "114520.324000", "114520.326000", "114520.329000", "114520.331000", "114520.333000", "114520.336000", "114520.338000", "114520.340000", "114520.343000", "114520.345000", "114520.347000", "114520.350000", "114520.352000", "114520.354000", "114520.357000", "114520.359000", "114520.361000", "114520.364000", "114520.366000", "114600.322000", "114600.324000", "114600.327000", "114600.329000", "114600.332000", "114600.335000", "114600.337000", "114600.340000", "114600.342000", "114600.344000", "114600.347000", "114600.357000", "114600.359000", "114600.362000", "114600.364000", "114600.366000", "114600.369000", "114600.371000", "114600.373000", "114600.376000", "114640.323000", "114640.326000", "114640.330000", "114640.333000", "114640.335000", "114640.338000", "114640.341000", "114640.344000", "114640.347000", "114640.350000", "114640.354000", "114640.357000", "114640.360000", "114640.363000", "114640.366000", "114640.369000", "114640.371000", "114640.374000", "114640.378000", "114640.395000", "114720.321000", "114720.324000", "114720.326000", "114720.329000", "114720.331000", "114720.333000", "114720.336000", "114720.338000", "114720.340000", "114720.343000", "114720.345000", "114720.347000", "114720.350000", "114720.352000", "114720.354000", "114720.357000", "114720.359000", "114720.362000", "114720.364000", "114720.366000", "114800.323000", "114800.326000", "114800.329000", "114800.331000", "114800.334000", "114800.336000", "114800.339000", "114800.341000", "114800.344000", "114800.346000", "114800.349000", "114800.351000", "114800.354000", "114800.356000", "114800.359000", "114800.361000", "114800.364000", "114800.366000", "114800.369000", "114800.371000", "114840.322000", "114840.325000", "114840.328000", "114840.331000", "114840.334000", "114840.337000", "114840.340000", "114840.343000", "114840.346000", "114840.349000", "114840.352000", "114840.355000", "114840.358000", "114840.361000", "114840.364000", "114840.367000", "114840.370000", "114840.373000", "114840.376000", "114840.379000", "114920.322000", "114920.324000", "114920.327000", "114920.329000", "114920.332000", "114920.334000", "114920.337000", "114920.339000", "114920.342000", "114920.344000", "114920.347000", "114920.349000", "114920.352000", "114920.354000", "114920.357000", "114920.359000", "114920.362000", "114920.364000", "114920.367000", "114920.369000", "115000.323000", "115000.325000", "115000.328000", "115000.330000", "115000.333000", "115000.335000", "115000.338000", "115000.340000", "115000.343000", "115000.345000", "115000.348000", "115000.350000", "115000.352000", "115000.355000", "115000.357000", "115000.360000", "115000.363000", "115000.365000", "115000.368000", "115000.370000", "115040.322000", "115040.325000", "115040.328000", "115040.331000", "115040.335000", "115040.338000", "115040.341000", "115040.344000", "115040.347000", "115040.350000", "115040.353000", "115040.356000", "115040.359000", "115040.362000", "115040.365000", "115040.372000", "115040.377000", "115040.381000", "115040.385000", "115040.388000", "115120.321000", "115120.324000", "115120.327000", "115120.329000", "115120.332000", "115120.334000", "115120.337000", "115120.339000", "115120.342000", "115120.344000", "115120.347000", "115120.349000", "115120.352000", "115120.354000", "115120.356000", "115120.359000", "115120.361000", "115120.364000", "115120.366000", "115120.369000", "115155.794000", "115155.797000", "115155.800000", "115155.803000", "115155.805000", "115155.808000", "115155.810000", "115155.813000", "115155.815000", "115155.818000", "115155.820000", "115155.823000", "115155.827000", "115155.830000", "115155.832000", "115155.837000", "115155.840000", "115155.843000"],
      "InstanceNumber": [1, 2, 3, 4, 5, 6, 7, 8, 9, 10, 11, 12, 13, 14, 15, 16, 17, 18, 19, 20, 21, 22, 23, 24, 25, 26, 27, 28, 29, 30, 31, 32, 33, 34, 35, 36, 37, 38, 39, 40, 41, 42, 43, 44, 45, 46, 47, 48, 49, 50, 51, 52, 53, 54, 55, 56, 57, 58, 59, 60, 61, 62, 63, 64, 65, 66, 67, 68, 69, 70, 71, 72, 73, 74, 75, 76, 77, 78, 79, 80, 81, 82, 83, 84, 85, 86, 87, 88, 89, 90, 91, 92, 93, 94, 95, 96, 97, 98, 99, 100, 101, 102, 103, 104, 105, 106, 107, 108, 109, 110, 111, 112, 113, 114, 115, 116, 117, 118, 119, 120, 121, 122, 123, 124, 125, 126, 127, 128, 129, 130, 131, 132, 133, 134, 135, 136, 137, 138, 139, 140, 141, 142, 143, 144, 145, 146, 147, 148, 149, 150, 151, 152, 153, 154, 155, 156, 157, 158, 159, 160, 161, 162, 163, 164, 165, 166, 167, 168, 169, 170, 171, 172, 173, 174, 175, 176, 177, 178, 179, 180, 181, 182, 183, 184, 185, 186, 187, 188, 189, 190, 191, 192, 193, 194, 195, 196, 197, 198, 199, 200, 201, 202, 203, 204, 205, 206, 207, 208, 209, 210, 211, 212, 213, 214, 215, 216, 217, 218, 219, 220, 221, 222, 223, 224, 225, 226, 227, 228, 229, 230, 231, 232, 233, 234, 235, 236, 237],
      "LargestImagePixelValue": [2864, 1905, 1778, 2353, 1753, 1981, 1769, 1690, 2253, 1981, 1730, 1832, 1779, 2404, 1758, 1710, 2297, 1692, 1873, 2510, 2001, 1914, 1896, 1841, 2808, 1932, 1756, 1829, 1922, 2291, 1816, 2674, 1670, 2110, 1766, 1783, 1791, 2827, 1658, 1708, 1830, 1712, 1852, 2096, 2190, 2313, 1768, 1807, 2629, 1740, 1737, 2410, 1901, 1840, 1843, 2243, 1695, 1835, 1969, 1701, 1901, 2719, 2730, 1699, 1880, 1783, 2374, 1846, 1683, 2155, 2039, 1701, 2105, 1923, 1715, 2039, 1832, 1707, 2065, 1812, 2789, 1714, 1722, 2249, 1915, 1758, 2371, 1737, 1780, 2000, 1922, 1795, 2047, 2063, 1807, 2478, 1699, 1796, 2188, 1909, 1754, 1928, 2627, 1741, 1786, 1827, 1689, 2135, 1704, 1949, 2443, 1687, 2167, 1739, 1865, 2186, 1832, 2700, 1953, 1729, 2665, 2055, 1835, 2153, 1678, 2432, 1732, 1678, 2526, 1757, 1670, 2509, 1735, 2191, 1787, 1735, 2088, 1888, 2389, 1769, 2415, 1819, 2059, 1849, 1782, 2154, 2170, 1888, 1782, 2305, 1990, 1752, 2516, 1826, 1859, 2200, 2004, 1839, 1988, 1707, 2068, 2108, 1846, 2564, 1997, 1862, 1732, 1829, 1683, 1780, 2610, 2277, 1805, 2264, 1894, 2130, 2488, 1713, 1737, 2314, 1712, 1693, 2655, 1739, 1831, 2317, 1751, 2231, 1758, 2384, 1751, 1661, 2750, 1760, 1733, 2615, 1729, 1752, 1761, 2136, 2410, 1692, 1874, 2295, 1771, 1760, 1849, 1921, 2629, 1753, 1698, 1643, 2591, 1910, 2158, 1675, 1730, 2193, 2166, 1793, 2353, 1671, 2353, 2443, 1687, 1783, 1757, 2558, 1737, 1764, 2420, 1694, 1836, 2141, 1769, 2373, 1835],
      "WindowCenter": [697.0, 694.0, 694.0, 697.0, 695.0, 695.0, 695.0, 695.0, 697.0, 696.0, 696.0, 696.0, 696.0, 698.0, 696.0, 696.0, 699.0, 698.0, 698.0, 699.0, 697.0, 697.0, 697.0, 697.0, 698.0, 697.0, 696.0, 697.0, 698.0, 699.0, 696.0, 698.0, 696.0, 697.0, 695.0, 694.0, 694.0, 697.0, 694.0, 695.0, 696.0, 695.0, 697.0, 696.0, 697.0, 696.0, 695.0, 696.0, 697.0, 696.0, 696.0, 697.0, 697.0, 696.0, 697.0, 698.0, 696.0, 697.0, 698.0, 697.0, 698.0, 699.0, 698.0, 695.0, 695.0, 695.0, 698.0, 696.0, 696.0, 697.0, 697.0, 696.0, 697.0, 697.0, 696.0, 697.0, 697.0, 696.0, 697.0, 696.0, 698.0, 695.0, 697.0, 698.0, 697.0, 696.0, 697.0, 695.0, 696.0, 696.0, 697.0, 697.0, 697.0, 697.0, 697.0, 698.0, 695.0, 697.0, 698.0, 696.0, 695.0, 695.0, 697.0, 695.0, 694.0, 695.0, 694.0, 696.0, 695.0, 695.0, 696.0, 694.0, 696.0, 696.0, 696.0, 697.0, 696.0, 698.0, 696.0, 695.0, 697.0, 695.0, 695.0, 696.0, 694.0, 697.0, 695.0, 695.0, 697.0, 695.0, 695.0, 697.0, 696.0, 697.0, 695.0, 695.0, 697.0, 697.0, 699.0, 696.0, 698.0, 696.0, 696.0, 695.0, 695.0, 697.0, 697.0, 695.0, 695.0, 697.0, 696.0, 695.0, 696.0, 695.0, 695.0, 695.0, 696.0, 696.0, 697.0, 696.0, 696.0, 697.0, 697.0, 699.0, 696.0, 695.0, 695.0, 696.0, 697.0, 697.0, 699.0, 697.0, 695.0, 698.0, 696.0, 696.0, 696.0, 693.0, 695.0, 697.0, 695.0, 695.0, 697.0, 696.0, 696.0, 698.0, 697.0, 696.0, 695.0, 697.0, 696.0, 695.0, 698.0, 695.0, 694.0, 697.0, 695.0, 695.0, 696.0, 698.0, 698.0, 695.0, 696.0, 696.0, 696.0, 696.0, 696.0, 696.0, 697.0, 695.0, 696.0, 697.0, 698.0, 696.0, 695.0, 694.0, 695.0, 698.0, 697.0, 696.0, 698.0, 696.0, 697.0, 697.0, 695.0, 696.0, 696.0, 697.0, 695.0, 695.0, 697.0, 695.0, 695.0, 696.0, 695.0, 697.0, 696.0],
      "WindowWidth": [1533.0, 1522.0, 1522.0, 1532.0, 1527.0, 1527.0, 1525.0, 1524.0, 1531.0, 1530.0, 1528.0, 1529.0, 1529.0, 1534.0, 1529.0, 1529.0, 1538.0, 1534.0, 1535.0, 1538.0, 1532.0, 1531.0, 1531.0, 1531.0, 1537.0, 1531.0, 1530.0, 1533.0, 1535.0, 1538.0, 1530.0, 1537.0, 1527.0, 1532.0, 1526.0, 1523.0, 1524.0, 1532.0, 1522.0, 1524.0, 1528.0, 1527.0, 1531.0, 1529.0, 1531.0, 1530.0, 1525.0, 1527.0, 1534.0, 1527.0, 1528.0, 1533.0, 1531.0, 1529.0, 1530.0, 1535.0, 1529.0, 1531.0, 1535.0, 1533.0, 1534.0, 1539.0, 1536.0, 1526.0, 1527.0, 1527.0, 1534.0, 1529.0, 1529.0, 1531.0, 1531.0, 1527.0, 1532.0, 1531.0, 1528.0, 1532.0, 1532.0, 1529.0, 1533.0, 1530.0, 1536.0, 1527.0, 1530.0, 1535.0, 1532.0, 1529.0, 1532.0, 1527.0, 1528.0, 1530.0, 1532.0, 1532.0, 1533.0, 1531.0, 1530.0, 1536.0, 1527.0, 1530.0, 1534.0, 1529.0, 1526.0, 1527.0, 1533.0, 1525.0, 1523.0, 1525.0, 1523.0, 1529.0, 1526.0, 1526.0, 1530.0, 1523.0, 1530.0, 1527.0, 1529.0, 1532.0, 1528.0, 1535.0, 1528.0, 1526.0, 1534.0, 1527.0, 1525.0, 1529.0, 1524.0, 1531.0, 1526.0, 1525.0, 1533.0, 1524.0, 1526.0, 1533.0, 1528.0, 1531.0, 1526.0, 1525.0, 1531.0, 1531.0, 1538.0, 1530.0, 1535.0, 1527.0, 1527.0, 1527.0, 1527.0, 1531.0, 1531.0, 1527.0, 1526.0, 1532.0, 1528.0, 1524.0, 1529.0, 1525.0, 1525.0, 1527.0, 1528.0, 1529.0, 1530.0, 1529.0, 1530.0, 1530.0, 1530.0, 1538.0, 1530.0, 1526.0, 1525.0, 1529.0, 1533.0, 1532.0, 1537.0, 1532.0, 1527.0, 1534.0, 1528.0, 1528.0, 1528.0, 1521.0, 1525.0, 1531.0, 1526.0, 1525.0, 1534.0, 1528.0, 1528.0, 1534.0, 1530.0, 1530.0, 1526.0, 1534.0, 1529.0, 1526.0, 1535.0, 1526.0, 1524.0, 1532.0, 1525.0, 1526.0, 1529.0, 1534.0, 1535.0, 1526.0, 1527.0, 1529.0, 1526.0, 1527.0, 1528.0, 1529.0, 1532.0, 1526.0, 1527.0, 1533.0, 1536.0, 1527.0, 1526.0, 1522.0, 1524.0, 1533.0, 1532.0, 1528.0, 1534.0, 1527.0, 1531.0, 1531.0, 1527.0, 1529.0, 1527.0, 1534.0, 1527.0, 1525.0, 1532.0, 1526.0, 1526.0, 1528.0, 1525.0, 1531.0, 1527.0]
    },
    "slices": {}
  }
}