{
  "AcquisitionMatrixPE": 70,
  "AcquisitionNumber": 1,
  "AcquisitionTime": "11:09:7.755000",
  "BandwidthPerPixelPhaseEncode": 38.873,
  "BaseResolution": 70,
  "BodyPartExamined": "HEAD",
  "ConsistencyInfo": "N4_VE11B_LATEST_20150530",
  "ConversionSoftware": "dcm2niix",
  "ConversionSoftwareVersion": "v1.0.20190410  GCC6.3.0",
  "DerivedVendorReportedEchoSpacing": 0.000489996,
  "DeviceSerialNumber": "66088",
  "DwellTime": 2.9e-06,
  "EchoTime": 0.03,
  "EchoTrainLength": 53,
  "EffectiveEchoSpacing": 0.000367497,
  "FlipAngle": 90,
  "ImageOrientationPatientDICOM": [0.999372, -0.0239625, -0.026089, 0.00872134, 0.880253, -0.474424],
  "ImageType": [
    "ORIGINAL",
    "PRIMARY",
    "M",
    "ND",
    "NORM",
    "MOSAIC"
],
  "ImagingFrequency": 123.191,
  "InPlanePhaseEncodingDirectionDICOM": "COL",
  "InstitutionAddress": "Street_StreetNo_City_District_IR_ZIP",
  "InstitutionName": "NBML",
  "InstitutionalDepartmentName": "Department",
  "MRAcquisitionType": "2D",
  "MagneticFieldStrength": 3,
  "Manufacturer": "Siemens",
  "ManufacturersModelName": "Prisma",
  "Modality": "MR",
  "ParallelReductionFactorInPlane": 2,
  "PartialFourier": 1,
  "PatientPosition": "HFS",
  "PercentPhaseFOV": 100,
  "PhaseEncodingDirection": "j-",
  "PhaseEncodingSteps": 105,
  "PhaseOversampling": 0.5,
  "PhaseResolution": 1,
  "PixelBandwidth": 2465,
  "ProcedureStepDescription": "NBML_Project_P-96169-Ebrahiminiya",
  "ProtocolName": "ep2d_p2_Task_3.5_measurment:237",
  "PulseSequenceDetails": "%SiemensSeq%_ep2d_pace",
  "ReceiveCoilActiveElements": "HC1-7;NC1",
  "ReceiveCoilName": "HeadNeck_64",
  "ReconMatrixPE": 70,
  "RefLinesPE": 24,
  "RepetitionTime": 2,
  "SAR": 0.0877137,
  "ScanOptions": "FS",
  "ScanningSequence": "EP",
  "SequenceName": "_epfid2d1_70",
  "SequenceVariant": "SK_OSP",
  "SeriesDescription": "ep2d_p2_Task_3.5_measurment:237",
  "SeriesNumber": 5,
  "ShimSetting": [2592, -4416, -3267, 350, 4, 92, 1, 26],
  "SliceThickness": 3.5,
  "SliceTiming": [0.99, 0, 1.0475, 0.0575, 1.1075, 0.1175, 1.165, 0.175, 1.2225, 0.2325, 1.28, 0.29, 1.34, 0.35, 1.3975, 0.4075, 1.455, 0.465, 1.515, 0.525, 1.5725, 0.5825, 1.63, 0.64, 1.6875, 0.6975, 1.7475, 0.7575, 1.805, 0.815, 1.8625, 0.8725, 1.9225, 0.9325],
  "SoftwareVersions": "syngo_MR_E11",
  "SpacingBetweenSlices": 3.85,
  "StationName": "AWP66088",
  "TaskName": "categorySelectivity",
  "TotalReadoutTime": 0.0253573,
  "TxRefAmp": 245.08,
  "dcmmeta_affine": [
    [-3.5406336784362793, 0.0308984462171793, -0.13218334317207336, 126.00667572021484],
    [0.08489586412906647, 3.1186118125915527, -1.8245092630386353, -80.24187469482422],
    [-0.09242962300777435, 1.6808158159255981, 3.38765287399292, -91.57656860351562],
    [0.0, 0.0, 0.0, 1.0]
],
  "dcmmeta_reorient_transform": [
    [0.0, -1.0, 0.0, 69.0],
    [1.0, 0.0, 0.0, 0.0],
    [0.0, 0.0, 1.0, 0.0],
    [0.0, 0.0, 0.0, 1.0]
],
  "dcmmeta_shape": [70, 70, 34, 237],
  "dcmmeta_slice_dim": 2,
  "dcmmeta_version": 0.6,
  "global": {
    "const": {
      "AccessionNumber": "M.BRZ",
      "AcquisitionMatrix": [70, 0, 0, 70],
      "AngioFlag": "N",
      "BitsAllocated": 16,
      "BitsStored": 12,
      "BodyPartExamined": "HEAD",
      "Columns": 420,
      "EchoNumbers": 1,
      "EchoTime": 30.0,
      "EchoTrainLength": 53,
      "FlipAngle": 90.0,
      "HighBit": 11,
      "ImageOrientationPatient": [0.99937238321893, -0.0239625416044, -0.0260890064812, 0.00872133538138, 0.88025336090612, -0.4744238178282],
      "ImagePositionPatient": [-753.15677674331, -665.84265969278, 334.71767619968],
      "ImageType": [
        "ORIGINAL",
        "PRIMARY",
        "M",
        "ND",
        "NORM",
        "MOSAIC"
],
      "ImagedNucleus": "1H",
      "ImagingFrequency": 123.191149,
      "InPlanePhaseEncodingDirection": "COL",
      "MRAcquisitionType": "2D",
      "MagneticFieldStrength": 3.0,
      "Manufacturer": "SIEMENS",
      "ManufacturerModelName": "Prisma",
      "Modality": "MR",
      "NumberOfAverages": 1.0,
      "NumberOfPhaseEncodingSteps": 105,
      "PercentPhaseFieldOfView": 100.0,
      "PercentSampling": 100.0,
      "PerformedProcedureStepStartTime": "104422.814000",
      "PhotometricInterpretation": "MONOCHROME2",
      "PixelBandwidth": 2465.0,
      "PixelRepresentation": 0,
      "PixelSpacing": [3.542857170105, 3.542857170105],
      "ProtocolName": "ep2d_p2_Task_3.5_measurment:237",
      "RepetitionTime": 2000.0,
      "Rows": 420,
      "SAR": 0.08771370424282,
      "SamplesPerPixel": 1,
      "ScanOptions": "FS",
      "ScanningSequence": "EP",
      "SequenceName": "*epfid2d1_70",
      "SequenceVariant": [
        "SK",
        "OSP"
],
      "SeriesDescription": "ep2d_p2_Task_3.5_measurment:237",
      "SeriesNumber": 5,
      "SeriesTime": "111000.294000",
      "SliceLocation": -46.878850934155,
      "SliceThickness": 3.5,
      "SmallestImagePixelValue": 0,
      "SoftwareVersions": "syngo MR E11",
      "SpacingBetweenSlices": 3.8499998368259,
      "SpecificCharacterSet": "ISO_IR 100",
      "StudyID": "1",
      "StudyTime": "104422.743000",
      "TransmitCoilName": "Body",
      "VariableFlipAngleFlag": "N",
      "WindowCenterWidthExplanation": "Algo1",
      "dBdt": 0.0},
    "slices": {}
  },
  "time": {
    "samples": {
      "AcquisitionNumber": [1, 2, 3, 4, 5, 6, 7, 8, 9, 10, 11, 12, 13, 14, 15, 16, 17, 18, 19, 20, 21, 22, 23, 24, 25, 26, 27, 28, 29, 30, 31, 32, 33, 34, 35, 36, 37, 38, 39, 40, 41, 42, 43, 44, 45, 46, 47, 48, 49, 50, 51, 52, 53, 54, 55, 56, 57, 58, 59, 60, 61, 62, 63, 64, 65, 66, 67, 68, 69, 70, 71, 72, 73, 74, 75, 76, 77, 78, 79, 80, 81, 82, 83, 84, 85, 86, 87, 88, 89, 90, 91, 92, 93, 94, 95, 96, 97, 98, 99, 100, 101, 102, 103, 104, 105, 106, 107, 108, 109, 110, 111, 112, 113, 114, 115, 116, 117, 118, 119, 120, 121, 122, 123, 124, 125, 126, 127, 128, 129, 130, 131, 132, 133, 134, 135, 136, 137, 138, 139, 140, 141, 142, 143, 144, 145, 146, 147, 148, 149, 150, 151, 152, 153, 154, 155, 156, 157, 158, 159, 160, 161, 162, 163, 164, 165, 166, 167, 168, 169, 170, 171, 172, 173, 174, 175, 176, 177, 178, 179, 180, 181, 182, 183, 184, 185, 186, 187, 188, 189, 190, 191, 192, 193, 194, 195, 196, 197, 198, 199, 200, 201, 202, 203, 204, 205, 206, 207, 208, 209, 210, 211, 212, 213, 214, 215, 216, 217, 218, 219, 220, 221, 222, 223, 224, 225, 226, 227, 228, 229, 230, 231, 232, 233, 234, 235, 236, 237],
      "AcquisitionTime": ["110907.755000", "110909.755000", "110911.755000", "110913.755000", "110915.755000", "110917.755000", "110919.755000", "110921.755000", "110923.755000", "110925.755000", "110927.755000", "110929.755000", "110931.755000", "110933.755000", "110935.755000", "110937.755000", "110939.755000", "110941.755000", "110943.755000", "110945.755000", "110947.755000", "110949.755000", "110951.755000", "110953.755000", "110955.755000", "110957.755000", "110959.755000", "111001.755000", "111003.755000", "111005.755000", "111007.755000", "111009.755000", "111011.755000", "111013.755000", "111015.755000", "111017.755000", "111019.755000", "111021.755000", "111023.755000", "111025.755000", "111027.755000", "111029.755000", "111031.755000", "111033.755000", "111035.755000", "111037.755000", "111039.755000", "111041.755000", "111043.755000", "111045.755000", "111047.755000", "111049.755000", "111051.755000", "111053.755000", "111055.755000", "111057.755000", "111059.755000", "111101.755000", "111103.755000", "111105.755000", "111107.755000", "111109.755000", "111111.755000", "111113.755000", "111115.755000", "111117.755000", "111119.755000", "111121.755000", "111123.755000", "111125.755000", "111127.755000", "111129.755000", "111131.755000", "111133.755000", "111135.755000", "111137.755000", "111139.755000", "111141.755000", "111143.755000", "111145.755000", "111147.755000", "111149.755000", "111151.755000", "111153.755000", "111155.755000", "111157.755000", "111159.755000", "111201.755000", "111203.755000", "111205.755000", "111207.755000", "111209.755000", "111211.755000", "111213.755000", "111215.755000", "111217.755000", "111219.755000", "111221.755000", "111223.755000", "111225.755000", "111227.755000", "111229.755000", "111231.755000", "111233.755000", "111235.755000", "111237.755000", "111239.755000", "111241.755000", "111243.755000", "111245.755000", "111247.755000", "111249.755000", "111251.755000", "111253.755000", "111255.755000", "111257.755000", "111259.755000", "111301.755000", "111303.755000", "111305.755000", "111307.755000", "111309.755000", "111311.755000", "111313.755000", "111315.755000", "111317.755000", "111319.755000", "111321.755000", "111323.755000", "111325.755000", "111327.755000", "111329.755000", "111331.755000", "111333.755000", "111335.755000", "111337.755000", "111339.755000", "111341.755000", "111343.755000", "111345.755000", "111347.755000", "111349.755000", "111351.755000", "111353.755000", "111355.755000", "111357.755000", "111359.755000", "111401.755000", "111403.755000", "111405.755000", "111407.755000", "111409.755000", "111411.755000", "111413.755000", "111415.755000", "111417.755000", "111419.755000", "111421.755000", "111423.755000", "111425.755000", "111427.755000", "111429.755000", "111431.755000", "111433.755000", "111435.755000", "111437.755000", "111439.755000", "111441.755000", "111443.755000", "111445.755000", "111447.755000", "111449.755000", "111451.755000", "111453.755000", "111455.755000", "111457.755000", "111459.755000", "111501.755000", "111503.755000", "111505.755000", "111507.755000", "111509.755000", "111511.755000", "111513.755000", "111515.755000", "111517.755000", "111519.755000", "111521.755000", "111523.755000", "111525.755000", "111527.755000", "111529.755000", "111531.755000", "111533.755000", "111535.755000", "111537.755000", "111539.755000", "111541.755000", "111543.755000", "111545.755000", "111547.755000", "111549.755000", "111551.755000", "111553.755000", "111555.755000", "111557.755000", "111559.755000", "111601.755000", "111603.755000", "111605.755000", "111607.755000", "111609.755000", "111611.755000", "111613.755000", "111615.755000", "111617.755000", "111619.755000", "111621.755000", "111623.755000", "111625.755000", "111627.755000", "111629.755000", "111631.755000", "111633.755000", "111635.755000", "111637.755000", "111639.755000", "111641.755000", "111643.755000", "111645.755000", "111647.755000", "111649.755000", "111651.755000", "111653.755000", "111655.755000", "111657.755000", "111659.755000"],
      "ContentTime": ["111000.297000", "111000.301000", "111000.303000", "111000.305000", "111000.308000", "111000.310000", "111000.312000", "111000.315000", "111000.317000", "111000.319000", "111000.322000", "111000.324000", "111000.327000", "111000.329000", "111000.331000", "111000.334000", "111000.336000", "111000.338000", "111000.341000", "111000.343000", "111000.345000", "111000.348000", "111000.350000", "111000.352000", "111000.355000", "111000.357000", "111040.295000", "111040.298000", "111040.302000", "111040.305000", "111040.308000", "111040.311000", "111040.314000", "111040.317000", "111040.320000", "111040.323000", "111040.327000", "111040.330000", "111040.333000", "111040.336000", "111040.339000", "111040.342000", "111040.345000", "111040.348000", "111040.351000", "111040.354000", "111120.294000", "111120.298000", "111120.301000", "111120.304000", "111120.307000", "111120.310000", "111120.313000", "111120.317000", "111120.320000", "111120.323000", "111120.328000", "111120.331000", "111120.334000", "111120.337000", "111120.340000", "111120.343000", "111120.346000", "111120.349000", "111120.352000", "111120.355000", "111200.292000", "111200.295000", "111200.297000", "111200.300000", "111200.302000", "111200.304000", "111200.307000", "111200.309000", "111200.311000", "111200.314000", "111200.316000", "111200.318000", "111200.321000", "111200.323000", "111200.325000", "111200.328000", "111200.330000", "111200.332000", "111200.335000", "111200.337000", "111240.293000", "111240.296000", "111240.300000", "111240.303000", "111240.306000", "111240.309000", "111240.312000", "111240.315000", "111240.318000", "111240.321000", "111240.324000", "111240.327000", "111240.330000", "111240.333000", "111240.336000", "111240.339000", "111240.342000", "111240.345000", "111240.348000", "111240.352000", "111320.296000", "111320.300000", "111320.304000", "111320.307000", "111320.310000", "111320.313000", "111320.316000", "111320.319000", "111320.322000", "111320.325000", "111320.328000", "111320.340000", "111320.344000", "111320.347000", "111320.350000", "111320.353000", "111320.356000", "111320.359000", "111320.363000", "111320.366000", "111400.292000", "111400.295000", "111400.297000", "111400.300000", "111400.302000", "111400.304000", "111400.307000", "111400.309000", "111400.311000", "111400.314000", "111400.316000", "111400.319000", "111400.321000", "111400.323000", "111400.326000", "111400.328000", "111400.330000", "111400.333000", "111400.335000", "111400.337000", "111420.293000", "111420.296000", "111420.299000", "111420.302000", "111420.305000", "111420.308000", "111420.311000", "111420.314000", "111420.317000", "111420.320000", "111500.292000", "111500.295000", "111500.298000", "111500.300000", "111500.303000", "111500.305000", "111500.308000", "111500.310000", "111500.313000", "111500.315000", "111500.318000", "111500.320000", "111500.323000", "111500.325000", "111500.328000", "111500.330000", "111500.332000", "111500.335000", "111500.338000", "111500.340000", "111540.294000", "111540.297000", "111540.300000", "111540.303000", "111540.306000", "111540.309000", "111540.312000", "111540.316000", "111540.319000", "111540.322000", "111540.325000", "111540.328000", "111540.331000", "111540.334000", "111540.337000", "111540.340000", "111540.343000", "111540.346000", "111540.349000", "111540.352000", "111620.293000", "111620.296000", "111620.299000", "111620.302000", "111620.305000", "111620.308000", "111620.311000", "111620.314000", "111620.317000", "111620.320000", "111620.323000", "111620.326000", "111620.329000", "111620.332000", "111620.336000", "111620.339000", "111620.342000", "111620.345000", "111620.348000", "111620.352000", "111700.293000", "111700.296000", "111700.298000", "111700.300000", "111700.303000", "111700.306000", "111700.308000", "111700.310000", "111700.313000", "111700.315000", "111700.318000", "111700.320000", "111700.323000", "111700.325000", "111700.328000", "111700.330000", "111700.333000", "111700.335000", "111700.338000", "111700.340000", "111701.081000"],
      "InstanceCreationTime": ["111000.297000", "111000.301000", "111000.303000", "111000.305000", "111000.308000", "111000.310000", "111000.312000", "111000.315000", "111000.317000", "111000.319000", "111000.322000", "111000.324000", "111000.327000", "111000.329000", "111000.331000", "111000.334000", "111000.336000", "111000.338000", "111000.341000", "111000.343000", "111000.345000", "111000.348000", "111000.350000", "111000.352000", "111000.355000", "111000.357000", "111040.295000", "111040.298000", "111040.302000", "111040.305000", "111040.308000", "111040.311000", "111040.314000", "111040.317000", "111040.320000", "111040.323000", "111040.327000", "111040.330000", "111040.333000", "111040.336000", "111040.339000", "111040.342000", "111040.345000", "111040.348000", "111040.351000", "111040.354000", "111120.294000", "111120.298000", "111120.301000", "111120.304000", "111120.307000", "111120.310000", "111120.313000", "111120.317000", "111120.320000", "111120.323000", "111120.328000", "111120.331000", "111120.334000", "111120.337000", "111120.340000", "111120.343000", "111120.346000", "111120.349000", "111120.352000", "111120.355000", "111200.292000", "111200.295000", "111200.297000", "111200.300000", "111200.302000", "111200.304000", "111200.307000", "111200.309000", "111200.311000", "111200.314000", "111200.316000", "111200.318000", "111200.321000", "111200.323000", "111200.325000", "111200.328000", "111200.330000", "111200.332000", "111200.335000", "111200.337000", "111240.293000", "111240.296000", "111240.300000", "111240.303000", "111240.306000", "111240.309000", "111240.312000", "111240.315000", "111240.318000", "111240.321000", "111240.324000", "111240.327000", "111240.330000", "111240.333000", "111240.336000", "111240.339000", "111240.342000", "111240.345000", "111240.348000", "111240.352000", "111320.296000", "111320.300000", "111320.304000", "111320.307000", "111320.310000", "111320.313000", "111320.316000", "111320.319000", "111320.322000", "111320.325000", "111320.328000", "111320.340000", "111320.344000", "111320.347000", "111320.350000", "111320.353000", "111320.356000", "111320.359000", "111320.363000", "111320.366000", "111400.292000", "111400.295000", "111400.297000", "111400.300000", "111400.302000", "111400.304000", "111400.307000", "111400.309000", "111400.311000", "111400.314000", "111400.316000", "111400.319000", "111400.321000", "111400.323000", "111400.326000", "111400.328000", "111400.330000", "111400.333000", "111400.335000", "111400.337000", "111420.293000", "111420.296000", "111420.299000", "111420.302000", "111420.305000", "111420.308000", "111420.311000", "111420.314000", "111420.317000", "111420.320000", "111500.292000", "111500.295000", "111500.298000", "111500.300000", "111500.303000", "111500.305000", "111500.308000", "111500.310000", "111500.313000", "111500.315000", "111500.318000", "111500.320000", "111500.323000", "111500.325000", "111500.328000", "111500.330000", "111500.332000", "111500.335000", "111500.338000", "111500.340000", "111540.294000", "111540.297000", "111540.300000", "111540.303000", "111540.306000", "111540.309000", "111540.312000", "111540.316000", "111540.319000", "111540.322000", "111540.325000", "111540.328000", "111540.331000", "111540.334000", "111540.337000", "111540.340000", "111540.343000", "111540.346000", "111540.349000", "111540.352000", "111620.293000", "111620.296000", "111620.299000", "111620.302000", "111620.305000", "111620.308000", "111620.311000", "111620.314000", "111620.317000", "111620.320000", "111620.323000", "111620.326000", "111620.329000", "111620.332000", "111620.336000", "111620.339000", "111620.342000", "111620.345000", "111620.348000", "111620.352000", "111700.293000", "111700.296000", "111700.298000", "111700.300000", "111700.303000", "111700.306000", "111700.308000", "111700.310000", "111700.313000", "111700.315000", "111700.318000", "111700.320000", "111700.323000", "111700.325000", "111700.328000", "111700.330000", "111700.333000", "111700.335000", "111700.338000", "111700.340000", "111701.081000"],
      "InstanceNumber": [1, 2, 3, 4, 5, 6, 7, 8, 9, 10, 11, 12, 13, 14, 15, 16, 17, 18, 19, 20, 21, 22, 23, 24, 25, 26, 27, 28, 29, 30, 31, 32, 33, 34, 35, 36, 37, 38, 39, 40, 41, 42, 43, 44, 45, 46, 47, 48, 49, 50, 51, 52, 53, 54, 55, 56, 57, 58, 59, 60, 61, 62, 63, 64, 65, 66, 67, 68, 69, 70, 71, 72, 73, 74, 75, 76, 77, 78, 79, 80, 81, 82, 83, 84, 85, 86, 87, 88, 89, 90, 91, 92, 93, 94, 95, 96, 97, 98, 99, 100, 101, 102, 103, 104, 105, 106, 107, 108, 109, 110, 111, 112, 113, 114, 115, 116, 117, 118, 119, 120, 121, 122, 123, 124, 125, 126, 127, 128, 129, 130, 131, 132, 133, 134, 135, 136, 137, 138, 139, 140, 141, 142, 143, 144, 145, 146, 147, 148, 149, 150, 151, 152, 153, 154, 155, 156, 157, 158, 159, 160, 161, 162, 163, 164, 165, 166, 167, 168, 169, 170, 171, 172, 173, 174, 175, 176, 177, 178, 179, 180, 181, 182, 183, 184, 185, 186, 187, 188, 189, 190, 191, 192, 193, 194, 195, 196, 197, 198, 199, 200, 201, 202, 203, 204, 205, 206, 207, 208, 209, 210, 211, 212, 213, 214, 215, 216, 217, 218, 219, 220, 221, 222, 223, 224, 225, 226, 227, 228, 229, 230, 231, 232, 233, 234, 235, 236, 237],
      "LargestImagePixelValue": [2097, 1847, 2877, 2069, 2155, 2205, 2342, 2358, 2051, 1999, 2131, 2532, 2067, 1682, 2290, 2347, 1876, 2366, 2257, 1845, 2221, 2066, 2515, 2074, 1732, 2489, 1803, 1735, 2820, 2010, 2505, 2054, 1724, 2757, 1669, 2434, 1845, 1697, 2305, 1891, 2065, 2638, 1705, 2620, 1941, 1829, 2745, 2028, 2647, 1994, 1940, 2807, 1924, 2046, 1862, 1708, 2802, 1663, 2795, 2078, 1837, 2174, 2464, 2049, 2403, 1932, 1719, 1942, 2220, 2156, 1734, 2762, 1882, 1939, 2247, 2178, 2190, 2131, 2497, 2010, 2683, 2104, 1653, 2399, 1934, 2336, 1895, 2572, 2145, 1671, 2580, 1715, 2216, 1808, 2365, 1905, 2663, 1863, 2613, 1909, 1956, 2068, 2043, 2481, 1845, 1684, 2467, 1651, 2518, 1706, 2263, 1845, 2108, 1694, 2729, 1773, 2724, 2021, 2349, 1886, 2771, 1718, 2706, 1887, 2172, 1956, 2371, 2041, 1734, 2616, 2021, 1902, 2504, 1974, 2088, 2042, 2644, 1685, 2682, 2048, 2434, 1823, 1756, 2346, 2242, 2054, 2618, 1830, 2278, 2231, 1805, 2305, 2358, 1777, 2201, 1907, 2308, 2364, 1703, 2260, 1908, 1713, 2735, 1727, 2345, 2272, 1708, 2744, 1741, 2697, 1732, 2588, 1907, 1748, 2791, 1755, 2539, 1988, 2139, 2112, 1780, 2605, 1950, 2162, 1860, 2056, 2432, 1927, 2718, 1715, 2715, 1709, 2195, 2126, 2213, 1718, 2473, 1819, 2501, 1991, 2176, 1969, 2112, 1786, 2191, 2275, 1660, 2810, 1886, 2039, 2023, 1876, 1713, 2590, 1730, 2135, 2245, 1721, 2516, 1746, 2337, 1762, 1885, 1827, 1760, 2727, 2026, 2708, 2204, 2119, 2099, 2511, 1843, 2426, 1938, 2566, 1935],
      "WindowCenter": [699.0, 698.0, 700.0, 698.0, 699.0, 699.0, 699.0, 698.0, 697.0, 697.0, 697.0, 697.0, 696.0, 697.0, 698.0, 698.0, 696.0, 698.0, 698.0, 696.0, 698.0, 697.0, 698.0, 697.0, 696.0, 698.0, 696.0, 696.0, 699.0, 697.0, 699.0, 698.0, 696.0, 699.0, 696.0, 698.0, 697.0, 697.0, 699.0, 697.0, 697.0, 699.0, 696.0, 699.0, 697.0, 697.0, 699.0, 697.0, 698.0, 697.0, 697.0, 699.0, 696.0, 697.0, 696.0, 696.0, 699.0, 697.0, 699.0, 697.0, 697.0, 699.0, 699.0, 698.0, 698.0, 696.0, 697.0, 697.0, 698.0, 698.0, 696.0, 699.0, 697.0, 697.0, 698.0, 698.0, 698.0, 698.0, 698.0, 697.0, 699.0, 698.0, 697.0, 699.0, 698.0, 700.0, 698.0, 699.0, 697.0, 696.0, 699.0, 696.0, 697.0, 697.0, 699.0, 697.0, 699.0, 697.0, 698.0, 697.0, 697.0, 697.0, 697.0, 698.0, 696.0, 696.0, 698.0, 696.0, 698.0, 696.0, 698.0, 697.0, 698.0, 697.0, 700.0, 697.0, 699.0, 697.0, 698.0, 697.0, 699.0, 696.0, 698.0, 696.0, 697.0, 697.0, 698.0, 698.0, 698.0, 699.0, 697.0, 697.0, 698.0, 697.0, 697.0, 697.0, 699.0, 696.0, 699.0, 698.0, 699.0, 697.0, 698.0, 700.0, 699.0, 698.0, 699.0, 697.0, 698.0, 698.0, 697.0, 698.0, 698.0, 697.0, 698.0, 698.0, 699.0, 699.0, 697.0, 698.0, 699.0, 698.0, 700.0, 697.0, 699.0, 699.0, 698.0, 700.0, 697.0, 699.0, 697.0, 699.0, 697.0, 696.0, 699.0, 696.0, 699.0, 697.0, 697.0, 697.0, 696.0, 698.0, 697.0, 698.0, 698.0, 699.0, 701.0, 698.0, 700.0, 697.0, 698.0, 697.0, 697.0, 698.0, 698.0, 696.0, 699.0, 697.0, 699.0, 697.0, 698.0, 697.0, 698.0, 697.0, 698.0, 699.0, 696.0, 700.0, 697.0, 697.0, 697.0, 697.0, 697.0, 699.0, 697.0, 698.0, 698.0, 697.0, 699.0, 697.0, 698.0, 697.0, 698.0, 699.0, 699.0, 701.0, 699.0, 701.0, 699.0, 698.0, 698.0, 699.0, 698.0, 699.0, 698.0, 699.0, 697.0],
      "WindowWidth": [1541.0, 1537.0, 1544.0, 1537.0, 1538.0, 1540.0, 1539.0, 1537.0, 1533.0, 1532.0, 1533.0, 1535.0, 1529.0, 1532.0, 1537.0, 1537.0, 1531.0, 1535.0, 1535.0, 1531.0, 1535.0, 1532.0, 1535.0, 1532.0, 1530.0, 1537.0, 1531.0, 1530.0, 1542.0, 1535.0, 1539.0, 1535.0, 1529.0, 1538.0, 1530.0, 1537.0, 1532.0, 1533.0, 1538.0, 1533.0, 1533.0, 1539.0, 1531.0, 1539.0, 1533.0, 1531.0, 1539.0, 1533.0, 1537.0, 1534.0, 1533.0, 1539.0, 1531.0, 1532.0, 1531.0, 1531.0, 1540.0, 1531.0, 1539.0, 1533.0, 1532.0, 1538.0, 1539.0, 1534.0, 1536.0, 1530.0, 1531.0, 1532.0, 1535.0, 1535.0, 1531.0, 1539.0, 1532.0, 1533.0, 1537.0, 1535.0, 1535.0, 1534.0, 1537.0, 1532.0, 1538.0, 1535.0, 1533.0, 1540.0, 1536.0, 1541.0, 1535.0, 1538.0, 1534.0, 1529.0, 1538.0, 1531.0, 1534.0, 1531.0, 1539.0, 1532.0, 1539.0, 1532.0, 1536.0, 1534.0, 1534.0, 1533.0, 1533.0, 1536.0, 1530.0, 1529.0, 1536.0, 1530.0, 1537.0, 1531.0, 1537.0, 1534.0, 1536.0, 1532.0, 1541.0, 1532.0, 1540.0, 1532.0, 1536.0, 1531.0, 1540.0, 1529.0, 1535.0, 1529.0, 1533.0, 1532.0, 1537.0, 1535.0, 1534.0, 1540.0, 1534.0, 1532.0, 1536.0, 1531.0, 1533.0, 1532.0, 1537.0, 1528.0, 1538.0, 1534.0, 1538.0, 1533.0, 1535.0, 1541.0, 1539.0, 1535.0, 1538.0, 1532.0, 1536.0, 1535.0, 1532.0, 1536.0, 1536.0, 1531.0, 1537.0, 1536.0, 1539.0, 1539.0, 1531.0, 1537.0, 1538.0, 1535.0, 1542.0, 1533.0, 1540.0, 1538.0, 1534.0, 1543.0, 1533.0, 1540.0, 1534.0, 1540.0, 1532.0, 1531.0, 1539.0, 1531.0, 1538.0, 1532.0, 1533.0, 1533.0, 1529.0, 1537.0, 1534.0, 1536.0, 1535.0, 1538.0, 1544.0, 1536.0, 1542.0, 1531.0, 1538.0, 1530.0, 1534.0, 1534.0, 1535.0, 1530.0, 1540.0, 1534.0, 1539.0, 1533.0, 1536.0, 1533.0, 1535.0, 1534.0, 1536.0, 1538.0, 1530.0, 1541.0, 1532.0, 1533.0, 1533.0, 1533.0, 1531.0, 1538.0, 1531.0, 1534.0, 1536.0, 1532.0, 1539.0, 1532.0, 1537.0, 1532.0, 1535.0, 1539.0, 1539.0, 1547.0, 1539.0, 1544.0, 1538.0, 1536.0, 1535.0, 1538.0, 1534.0, 1540.0, 1535.0, 1539.0, 1533.0]
    },
    "slices": {}
  }
}