{
  "AcquisitionMatrixPE": 70,
  "AcquisitionNumber": 1,
  "AcquisitionTime": "11:17:41.382500",
  "BandwidthPerPixelPhaseEncode": 38.873,
  "BaseResolution": 70,
  "BodyPartExamined": "HEAD",
  "ConsistencyInfo": "N4_VE11B_LATEST_20150530",
  "ConversionSoftware": "dcm2niix",
  "ConversionSoftwareVersion": "v1.0.20190410  GCC6.3.0",
  "DerivedVendorReportedEchoSpacing": 0.000489996,
  "DeviceSerialNumber": "66088",
  "DwellTime": 2.9e-06,
  "EchoTime": 0.03,
  "EchoTrainLength": 53,
  "EffectiveEchoSpacing": 0.000367497,
  "FlipAngle": 90,
  "ImageOrientationPatientDICOM": [0.999372, -0.0239625, -0.026089, 0.00872134, 0.880253, -0.474424],
  "ImageType": [
    "ORIGINAL",
    "PRIMARY",
    "M",
    "ND",
    "NORM",
    "MOSAIC"
],
  "ImagingFrequency": 123.191,
  "InPlanePhaseEncodingDirectionDICOM": "COL",
  "InstitutionAddress": "Street_StreetNo_City_District_IR_ZIP",
  "InstitutionName": "NBML",
  "InstitutionalDepartmentName": "Department",
  "MRAcquisitionType": "2D",
  "MagneticFieldStrength": 3,
  "Manufacturer": "Siemens",
  "ManufacturersModelName": "Prisma",
  "Modality": "MR",
  "ParallelReductionFactorInPlane": 2,
  "PartialFourier": 1,
  "PatientPosition": "HFS",
  "PercentPhaseFOV": 100,
  "PhaseEncodingDirection": "j-",
  "PhaseEncodingSteps": 105,
  "PhaseOversampling": 0.5,
  "PhaseResolution": 1,
  "PixelBandwidth": 2465,
  "ProcedureStepDescription": "NBML_Project_P-96169-Ebrahiminiya",
  "ProtocolName": "ep2d_p2_Task_3.5_measurment:237",
  "PulseSequenceDetails": "%SiemensSeq%_ep2d_pace",
  "ReceiveCoilActiveElements": "HC1-7;NC1",
  "ReceiveCoilName": "HeadNeck_64",
  "ReconMatrixPE": 70,
  "RefLinesPE": 24,
  "RepetitionTime": 2,
  "SAR": 0.0877137,
  "ScanOptions": "FS",
  "ScanningSequence": "EP",
  "SequenceName": "_epfid2d1_70",
  "SequenceVariant": "SK_OSP",
  "SeriesDescription": "ep2d_p2_Task_3.5_measurment:237",
  "SeriesNumber": 6,
  "ShimSetting": [2592, -4416, -3267, 350, 4, 92, 1, 26],
  "SliceThickness": 3.5,
  "SliceTiming": [0.99, 0, 1.0475, 0.0575, 1.105, 0.115, 1.165, 0.175, 1.2225, 0.2325, 1.28, 0.29, 1.3375, 0.3475, 1.3975, 0.4075, 1.455, 0.465, 1.5125, 0.5225, 1.5725, 0.5825, 1.63, 0.64, 1.6875, 0.6975, 1.745, 0.7575, 1.805, 0.815, 1.8625, 0.8725, 1.92, 0.93],
  "SoftwareVersions": "syngo_MR_E11",
  "SpacingBetweenSlices": 3.85,
  "StationName": "AWP66088",
  "TaskName": "categorySelectivity",
  "TotalReadoutTime": 0.0253573,
  "TxRefAmp": 245.08,
  "dcmmeta_affine": [
    [-3.5406336784362793, 0.0308984462171793, -0.13218334317207336, 126.00667572021484],
    [0.08489586412906647, 3.1186118125915527, -1.8245092630386353, -80.24187469482422],
    [-0.09242962300777435, 1.6808158159255981, 3.38765287399292, -91.57656860351562],
    [0.0, 0.0, 0.0, 1.0]
],
  "dcmmeta_reorient_transform": [
    [0.0, -1.0, 0.0, 69.0],
    [1.0, 0.0, 0.0, 0.0],
    [0.0, 0.0, 1.0, 0.0],
    [0.0, 0.0, 0.0, 1.0]
],
  "dcmmeta_shape": [70, 70, 34, 237],
  "dcmmeta_slice_dim": 2,
  "dcmmeta_version": 0.6,
  "global": {
    "const": {
      "AccessionNumber": "M.BRZ",
      "AcquisitionMatrix": [70, 0, 0, 70],
      "AngioFlag": "N",
      "BitsAllocated": 16,
      "BitsStored": 12,
      "BodyPartExamined": "HEAD",
      "Columns": 420,
      "EchoNumbers": 1,
      "EchoTime": 30.0,
      "EchoTrainLength": 53,
      "FlipAngle": 90.0,
      "HighBit": 11,
      "ImageOrientationPatient": [0.99937238321893, -0.0239625416044, -0.0260890064812, 0.00872133538138, 0.88025336090612, -0.4744238178282],
      "ImagePositionPatient": [-753.15677674331, -665.84265969278, 334.71767619968],
      "ImageType": [
        "ORIGINAL",
        "PRIMARY",
        "M",
        "ND",
        "NORM",
        "MOSAIC"
],
      "ImagedNucleus": "1H",
      "ImagingFrequency": 123.19115,
      "InPlanePhaseEncodingDirection": "COL",
      "MRAcquisitionType": "2D",
      "MagneticFieldStrength": 3.0,
      "Manufacturer": "SIEMENS",
      "ManufacturerModelName": "Prisma",
      "Modality": "MR",
      "NumberOfAverages": 1.0,
      "NumberOfPhaseEncodingSteps": 105,
      "PercentPhaseFieldOfView": 100.0,
      "PercentSampling": 100.0,
      "PerformedProcedureStepStartTime": "104422.814000",
      "PhotometricInterpretation": "MONOCHROME2",
      "PixelBandwidth": 2465.0,
      "PixelRepresentation": 0,
      "PixelSpacing": [3.542857170105, 3.542857170105],
      "ProtocolName": "ep2d_p2_Task_3.5_measurment:237",
      "RepetitionTime": 2000.0,
      "Rows": 420,
      "SAR": 0.08771370424282,
      "SamplesPerPixel": 1,
      "ScanOptions": "FS",
      "ScanningSequence": "EP",
      "SequenceName": "*epfid2d1_70",
      "SequenceVariant": [
        "SK",
        "OSP"
],
      "SeriesDescription": "ep2d_p2_Task_3.5_measurment:237",
      "SeriesNumber": 6,
      "SeriesTime": "111840.323000",
      "SliceLocation": -46.878850934155,
      "SliceThickness": 3.5,
      "SmallestImagePixelValue": 0,
      "SoftwareVersions": "syngo MR E11",
      "SpacingBetweenSlices": 3.8499998368259,
      "SpecificCharacterSet": "ISO_IR 100",
      "StudyID": "1",
      "StudyTime": "104422.743000",
      "TransmitCoilName": "Body",
      "VariableFlipAngleFlag": "N",
      "WindowCenterWidthExplanation": "Algo1",
      "dBdt": 0.0},
    "slices": {}
  },
  "time": {
    "samples": {
      "AcquisitionNumber": [1, 2, 3, 4, 5, 6, 7, 8, 9, 10, 11, 12, 13, 14, 15, 16, 17, 18, 19, 20, 21, 22, 23, 24, 25, 26, 27, 28, 29, 30, 31, 32, 33, 34, 35, 36, 37, 38, 39, 40, 41, 42, 43, 44, 45, 46, 47, 48, 49, 50, 51, 52, 53, 54, 55, 56, 57, 58, 59, 60, 61, 62, 63, 64, 65, 66, 67, 68, 69, 70, 71, 72, 73, 74, 75, 76, 77, 78, 79, 80, 81, 82, 83, 84, 85, 86, 87, 88, 89, 90, 91, 92, 93, 94, 95, 96, 97, 98, 99, 100, 101, 102, 103, 104, 105, 106, 107, 108, 109, 110, 111, 112, 113, 114, 115, 116, 117, 118, 119, 120, 121, 122, 123, 124, 125, 126, 127, 128, 129, 130, 131, 132, 133, 134, 135, 136, 137, 138, 139, 140, 141, 142, 143, 144, 145, 146, 147, 148, 149, 150, 151, 152, 153, 154, 155, 156, 157, 158, 159, 160, 161, 162, 163, 164, 165, 166, 167, 168, 169, 170, 171, 172, 173, 174, 175, 176, 177, 178, 179, 180, 181, 182, 183, 184, 185, 186, 187, 188, 189, 190, 191, 192, 193, 194, 195, 196, 197, 198, 199, 200, 201, 202, 203, 204, 205, 206, 207, 208, 209, 210, 211, 212, 213, 214, 215, 216, 217, 218, 219, 220, 221, 222, 223, 224, 225, 226, 227, 228, 229, 230, 231, 232, 233, 234, 235, 236, 237],
      "AcquisitionTime": ["111741.382500", "111743.382500", "111745.382500", "111747.382500", "111749.382500", "111751.382500", "111753.382500", "111755.382500", "111757.382500", "111759.382500", "111801.382500", "111803.382500", "111805.382500", "111807.382500", "111809.382500", "111811.382500", "111813.382500", "111815.382500", "111817.382500", "111819.382500", "111821.382500", "111823.382500", "111825.382500", "111827.382500", "111829.382500", "111831.382500", "111833.382500", "111835.382500", "111837.382500", "111839.382500", "111841.382500", "111843.382500", "111845.382500", "111847.382500", "111849.382500", "111851.382500", "111853.382500", "111855.382500", "111857.382500", "111859.382500", "111901.382500", "111903.382500", "111905.382500", "111907.382500", "111909.382500", "111911.382500", "111913.382500", "111915.382500", "111917.382500", "111919.382500", "111921.382500", "111923.382500", "111925.382500", "111927.382500", "111929.382500", "111931.382500", "111933.382500", "111935.382500", "111937.382500", "111939.382500", "111941.382500", "111943.382500", "111945.382500", "111947.382500", "111949.382500", "111951.382500", "111953.382500", "111955.382500", "111957.382500", "111959.382500", "112001.382500", "112003.382500", "112005.382500", "112007.382500", "112009.382500", "112011.382500", "112013.382500", "112015.382500", "112017.382500", "112019.382500", "112021.382500", "112023.382500", "112025.382500", "112027.382500", "112029.382500", "112031.382500", "112033.382500", "112035.382500", "112037.382500", "112039.382500", "112041.382500", "112043.382500", "112045.382500", "112047.382500", "112049.382500", "112051.382500", "112053.382500", "112055.382500", "112057.382500", "112059.382500", "112101.382500", "112103.382500", "112105.382500", "112107.382500", "112109.382500", "112111.382500", "112113.382500", "112115.382500", "112117.382500", "112119.382500", "112121.382500", "112123.382500", "112125.382500", "112127.382500", "112129.382500", "112131.382500", "112133.382500", "112135.382500", "112137.382500", "112139.382500", "112141.382500", "112143.382500", "112145.382500", "112147.382500", "112149.382500", "112151.382500", "112153.382500", "112155.382500", "112157.382500", "112159.382500", "112201.382500", "112203.382500", "112205.382500", "112207.382500", "112209.382500", "112211.382500", "112213.382500", "112215.382500", "112217.382500", "112219.382500", "112221.382500", "112223.382500", "112225.382500", "112227.382500", "112229.382500", "112231.382500", "112233.382500", "112235.382500", "112237.382500", "112239.382500", "112241.382500", "112243.382500", "112245.382500", "112247.382500", "112249.382500", "112251.382500", "112253.382500", "112255.382500", "112257.382500", "112259.382500", "112301.382500", "112303.382500", "112305.382500", "112307.382500", "112309.382500", "112311.382500", "112313.382500", "112315.382500", "112317.382500", "112319.382500", "112321.382500", "112323.382500", "112325.382500", "112327.382500", "112329.382500", "112331.382500", "112333.382500", "112335.382500", "112337.382500", "112339.382500", "112341.382500", "112343.382500", "112345.382500", "112347.382500", "112349.382500", "112351.382500", "112353.382500", "112355.382500", "112357.382500", "112359.382500", "112401.382500", "112403.382500", "112405.382500", "112407.382500", "112409.382500", "112411.382500", "112413.382500", "112415.382500", "112417.382500", "112419.382500", "112421.382500", "112423.382500", "112425.382500", "112427.382500", "112429.382500", "112431.382500", "112433.382500", "112435.382500", "112437.382500", "112439.382500", "112441.382500", "112443.382500", "112445.382500", "112447.382500", "112449.382500", "112451.382500", "112453.382500", "112455.382500", "112457.382500", "112459.382500", "112501.382500", "112503.382500", "112505.382500", "112507.382500", "112509.382500", "112511.382500", "112513.382500", "112515.382500", "112517.382500", "112519.382500", "112521.382500", "112523.382500", "112525.382500", "112527.382500", "112529.382500", "112531.382500", "112533.382500"],
      "ContentTime": ["111840.327000", "111840.331000", "111840.334000", "111840.337000", "111840.340000", "111840.343000", "111840.346000", "111840.349000", "111840.352000", "111840.355000", "111840.358000", "111840.361000", "111840.364000", "111840.371000", "111840.375000", "111840.378000", "111840.381000", "111840.384000", "111840.387000", "111840.407000", "111840.410000", "111840.413000", "111840.416000", "111840.419000", "111840.423000", "111840.426000", "111840.429000", "111840.432000", "111840.440000", "111920.325000", "111920.328000", "111920.332000", "111920.335000", "111920.337000", "111920.340000", "111920.343000", "111920.346000", "111920.349000", "111920.352000", "111920.355000", "111920.358000", "111920.361000", "111920.364000", "111920.367000", "111920.370000", "111920.382000", "111920.386000", "111920.389000", "111920.392000", "112000.322000", "112000.325000", "112000.327000", "112000.330000", "112000.332000", "112000.334000", "112000.337000", "112000.339000", "112000.341000", "112000.344000", "112000.346000", "112000.348000", "112000.351000", "112000.353000", "112000.355000", "112000.358000", "112000.360000", "112000.362000", "112000.365000", "112000.367000", "112040.322000", "112040.325000", "112040.328000", "112040.331000", "112040.334000", "112040.337000", "112040.340000", "112040.343000", "112040.346000", "112040.349000", "112040.352000", "112040.355000", "112040.358000", "112040.361000", "112040.364000", "112040.367000", "112040.370000", "112040.373000", "112040.376000", "112040.379000", "112120.324000", "112120.329000", "112120.332000", "112120.335000", "112120.338000", "112120.341000", "112120.344000", "112120.347000", "112120.350000", "112120.354000", "112120.357000", "112120.360000", "112120.363000", "112120.366000", "112120.369000", "112120.372000", "112120.375000", "112120.378000", "112120.381000", "112120.384000", "112200.321000", "112200.324000", "112200.326000", "112200.329000", "112200.331000", "112200.333000", "112200.336000", "112200.338000", "112200.340000", "112200.343000", "112200.345000", "112200.347000", "112200.350000", "112200.352000", "112200.355000", "112200.357000", "112200.359000", "112200.362000", "112200.364000", "112200.366000", "112240.322000", "112240.325000", "112240.328000", "112240.331000", "112240.334000", "112240.337000", "112240.341000", "112240.344000", "112240.347000", "112240.350000", "112240.353000", "112240.356000", "112240.359000", "112240.362000", "112240.365000", "112240.368000", "112240.371000", "112240.374000", "112240.377000", "112240.380000", "112320.322000", "112320.325000", "112320.328000", "112320.331000", "112320.334000", "112320.337000", "112320.340000", "112320.343000", "112320.347000", "112320.350000", "112320.353000", "112320.356000", "112320.359000", "112320.362000", "112320.365000", "112320.368000", "112320.371000", "112320.374000", "112320.377000", "112320.380000", "112400.321000", "112400.324000", "112400.326000", "112400.329000", "112400.331000", "112400.333000", "112400.336000", "112400.338000", "112400.341000", "112400.343000", "112400.345000", "112400.348000", "112400.350000", "112400.352000", "112400.355000", "112400.357000", "112400.360000", "112400.362000", "112400.364000", "112400.367000", "112440.323000", "112440.326000", "112440.329000", "112440.332000", "112440.335000", "112440.339000", "112440.342000", "112440.345000", "112440.348000", "112440.351000", "112440.354000", "112440.357000", "112440.360000", "112440.363000", "112440.366000", "112440.369000", "112440.372000", "112440.375000", "112440.378000", "112440.381000", "112520.322000", "112520.324000", "112520.327000", "112520.329000", "112520.331000", "112520.334000", "112520.336000", "112520.338000", "112520.341000", "112520.343000", "112520.345000", "112520.348000", "112520.350000", "112520.352000", "112520.355000", "112520.357000", "112520.360000", "112520.362000", "112520.364000", "112520.367000", "112535.006000", "112535.010000", "112535.013000", "112535.016000", "112535.019000", "112535.022000", "112535.027000", "112535.031000"],
      "InstanceCreationTime": ["111840.327000", "111840.331000", "111840.334000", "111840.337000", "111840.340000", "111840.343000", "111840.346000", "111840.349000", "111840.352000", "111840.355000", "111840.358000", "111840.361000", "111840.364000", "111840.371000", "111840.375000", "111840.378000", "111840.381000", "111840.384000", "111840.387000", "111840.407000", "111840.410000", "111840.413000", "111840.416000", "111840.419000", "111840.423000", "111840.426000", "111840.429000", "111840.432000", "111840.440000", "111920.325000", "111920.328000", "111920.332000", "111920.335000", "111920.337000", "111920.340000", "111920.343000", "111920.346000", "111920.349000", "111920.352000", "111920.355000", "111920.358000", "111920.361000", "111920.364000", "111920.367000", "111920.370000", "111920.382000", "111920.386000", "111920.389000", "111920.392000", "112000.322000", "112000.325000", "112000.327000", "112000.330000", "112000.332000", "112000.334000", "112000.337000", "112000.339000", "112000.341000", "112000.344000", "112000.346000", "112000.348000", "112000.351000", "112000.353000", "112000.355000", "112000.358000", "112000.360000", "112000.362000", "112000.365000", "112000.367000", "112040.322000", "112040.325000", "112040.328000", "112040.331000", "112040.334000", "112040.337000", "112040.340000", "112040.343000", "112040.346000", "112040.349000", "112040.352000", "112040.355000", "112040.358000", "112040.361000", "112040.364000", "112040.367000", "112040.370000", "112040.373000", "112040.376000", "112040.379000", "112120.324000", "112120.329000", "112120.332000", "112120.335000", "112120.338000", "112120.341000", "112120.344000", "112120.347000", "112120.350000", "112120.354000", "112120.357000", "112120.360000", "112120.363000", "112120.366000", "112120.369000", "112120.372000", "112120.375000", "112120.378000", "112120.381000", "112120.384000", "112200.321000", "112200.324000", "112200.326000", "112200.329000", "112200.331000", "112200.333000", "112200.336000", "112200.338000", "112200.340000", "112200.343000", "112200.345000", "112200.347000", "112200.350000", "112200.352000", "112200.355000", "112200.357000", "112200.359000", "112200.362000", "112200.364000", "112200.366000", "112240.322000", "112240.325000", "112240.328000", "112240.331000", "112240.334000", "112240.337000", "112240.341000", "112240.344000", "112240.347000", "112240.350000", "112240.353000", "112240.356000", "112240.359000", "112240.362000", "112240.365000", "112240.368000", "112240.371000", "112240.374000", "112240.377000", "112240.380000", "112320.322000", "112320.325000", "112320.328000", "112320.331000", "112320.334000", "112320.337000", "112320.340000", "112320.343000", "112320.347000", "112320.350000", "112320.353000", "112320.356000", "112320.359000", "112320.362000", "112320.365000", "112320.368000", "112320.371000", "112320.374000", "112320.377000", "112320.380000", "112400.321000", "112400.324000", "112400.326000", "112400.329000", "112400.331000", "112400.333000", "112400.336000", "112400.338000", "112400.341000", "112400.343000", "112400.345000", "112400.348000", "112400.350000", "112400.352000", "112400.355000", "112400.357000", "112400.360000", "112400.362000", "112400.364000", "112400.367000", "112440.323000", "112440.326000", "112440.329000", "112440.332000", "112440.335000", "112440.339000", "112440.342000", "112440.345000", "112440.348000", "112440.351000", "112440.354000", "112440.357000", "112440.360000", "112440.363000", "112440.366000", "112440.369000", "112440.372000", "112440.375000", "112440.378000", "112440.381000", "112520.322000", "112520.324000", "112520.327000", "112520.329000", "112520.331000", "112520.334000", "112520.336000", "112520.338000", "112520.341000", "112520.343000", "112520.345000", "112520.348000", "112520.350000", "112520.352000", "112520.355000", "112520.357000", "112520.360000", "112520.362000", "112520.364000", "112520.367000", "112535.006000", "112535.010000", "112535.013000", "112535.016000", "112535.019000", "112535.022000", "112535.027000", "112535.031000"],
      "InstanceNumber": [1, 2, 3, 4, 5, 6, 7, 8, 9, 10, 11, 12, 13, 14, 15, 16, 17, 18, 19, 20, 21, 22, 23, 24, 25, 26, 27, 28, 29, 30, 31, 32, 33, 34, 35, 36, 37, 38, 39, 40, 41, 42, 43, 44, 45, 46, 47, 48, 49, 50, 51, 52, 53, 54, 55, 56, 57, 58, 59, 60, 61, 62, 63, 64, 65, 66, 67, 68, 69, 70, 71, 72, 73, 74, 75, 76, 77, 78, 79, 80, 81, 82, 83, 84, 85, 86, 87, 88, 89, 90, 91, 92, 93, 94, 95, 96, 97, 98, 99, 100, 101, 102, 103, 104, 105, 106, 107, 108, 109, 110, 111, 112, 113, 114, 115, 116, 117, 118, 119, 120, 121, 122, 123, 124, 125, 126, 127, 128, 129, 130, 131, 132, 133, 134, 135, 136, 137, 138, 139, 140, 141, 142, 143, 144, 145, 146, 147, 148, 149, 150, 151, 152, 153, 154, 155, 156, 157, 158, 159, 160, 161, 162, 163, 164, 165, 166, 167, 168, 169, 170, 171, 172, 173, 174, 175, 176, 177, 178, 179, 180, 181, 182, 183, 184, 185, 186, 187, 188, 189, 190, 191, 192, 193, 194, 195, 196, 197, 198, 199, 200, 201, 202, 203, 204, 205, 206, 207, 208, 209, 210, 211, 212, 213, 214, 215, 216, 217, 218, 219, 220, 221, 222, 223, 224, 225, 226, 227, 228, 229, 230, 231, 232, 233, 234, 235, 236, 237],
      "LargestImagePixelValue": [2194, 2392, 2164, 2151, 2406, 1709, 2659, 1796, 2681, 1997, 3317, 2212, 2465, 1996, 1726, 2663, 1890, 2677, 1853, 1833, 2520, 1840, 2433, 1933, 1939, 2482, 1730, 2845, 1911, 2336, 1950, 1855, 2333, 1792, 2511, 1974, 2490, 1860, 2741, 1729, 2765, 1738, 2211, 2279, 1728, 2790, 1900, 2686, 1774, 2626, 1889, 2399, 2088, 2153, 2005, 2373, 1800, 2806, 1770, 2027, 2516, 1705, 2699, 1758, 2115, 2457, 1745, 2679, 1914, 2389, 1730, 2075, 2286, 1753, 2551, 1849, 2255, 1895, 1911, 2056, 2277, 2593, 1785, 2702, 1962, 2561, 2210, 1743, 2560, 1768, 2119, 2331, 1880, 2722, 1894, 1893, 2027, 2217, 1952, 2750, 2097, 2095, 1702, 2252, 2156, 1874, 2252, 1758, 1965, 1996, 1748, 2366, 2257, 1759, 2341, 1722, 2224, 1903, 2772, 1729, 2684, 2041, 1851, 1689, 2235, 2424, 2051, 2328, 1711, 2525, 2680, 1731, 2257, 1733, 1803, 2492, 1740, 2288, 2364, 1694, 2424, 1757, 2089, 1675, 2766, 1719, 2207, 2581, 2075, 1985, 1967, 1868, 2811, 1698, 1777, 2418, 1787, 2142, 2030, 1799, 2502, 1827, 1895, 2357, 1789, 2490, 1863, 1693, 2758, 2217, 1780, 1810, 2744, 2514, 1725, 2649, 1874, 2036, 2265, 2087, 2344, 1831, 2133, 1800, 2364, 1930, 2359, 2025, 1723, 2726, 1774, 1728, 2482, 1711, 2459, 1804, 1745, 2440, 1730, 2463, 1866, 2070, 2304, 1744, 2652, 1772, 1738, 2742, 2141, 2164, 1840, 2660, 1857, 2795, 2689, 1718, 2548, 1777, 1976, 2765, 1703, 2615, 1788, 1669, 2242, 2688, 2421, 1808, 2550, 2222, 1754, 1767, 1737, 1859, 2409, 1691, 2265],
      "WindowCenter": [700.0, 700.0, 698.0, 698.0, 698.0, 697.0, 699.0, 698.0, 700.0, 697.0, 700.0, 697.0, 697.0, 697.0, 695.0, 699.0, 696.0, 698.0, 696.0, 696.0, 697.0, 696.0, 699.0, 698.0, 697.0, 698.0, 697.0, 700.0, 697.0, 699.0, 697.0, 697.0, 698.0, 697.0, 699.0, 697.0, 699.0, 698.0, 700.0, 697.0, 699.0, 696.0, 697.0, 698.0, 697.0, 700.0, 698.0, 700.0, 698.0, 700.0, 698.0, 699.0, 698.0, 698.0, 699.0, 699.0, 697.0, 699.0, 696.0, 697.0, 699.0, 696.0, 699.0, 697.0, 697.0, 698.0, 696.0, 699.0, 697.0, 698.0, 696.0, 697.0, 698.0, 697.0, 699.0, 697.0, 697.0, 696.0, 697.0, 697.0, 698.0, 699.0, 697.0, 700.0, 697.0, 697.0, 697.0, 696.0, 698.0, 697.0, 698.0, 699.0, 697.0, 699.0, 697.0, 697.0, 698.0, 699.0, 699.0, 700.0, 698.0, 697.0, 695.0, 698.0, 698.0, 697.0, 698.0, 696.0, 697.0, 698.0, 697.0, 699.0, 698.0, 696.0, 697.0, 696.0, 700.0, 699.0, 701.0, 697.0, 699.0, 698.0, 696.0, 697.0, 699.0, 699.0, 697.0, 698.0, 696.0, 698.0, 698.0, 695.0, 697.0, 696.0, 696.0, 699.0, 697.0, 698.0, 699.0, 697.0, 698.0, 696.0, 699.0, 697.0, 701.0, 697.0, 699.0, 699.0, 697.0, 697.0, 697.0, 697.0, 699.0, 696.0, 696.0, 698.0, 697.0, 698.0, 697.0, 697.0, 699.0, 697.0, 697.0, 699.0, 698.0, 699.0, 698.0, 698.0, 699.0, 698.0, 696.0, 698.0, 699.0, 698.0, 697.0, 699.0, 698.0, 698.0, 698.0, 698.0, 698.0, 696.0, 699.0, 697.0, 698.0, 698.0, 698.0, 698.0, 697.0, 699.0, 696.0, 695.0, 698.0, 696.0, 698.0, 697.0, 696.0, 698.0, 697.0, 699.0, 698.0, 698.0, 698.0, 697.0, 700.0, 698.0, 697.0, 700.0, 699.0, 699.0, 698.0, 700.0, 697.0, 698.0, 698.0, 695.0, 698.0, 696.0, 697.0, 698.0, 695.0, 698.0, 696.0, 697.0, 699.0, 698.0, 697.0, 694.0, 695.0, 695.0, 694.0, 695.0, 697.0, 698.0, 700.0, 698.0, 699.0],
      "WindowWidth": [1543.0, 1543.0, 1536.0, 1535.0, 1537.0, 1531.0, 1540.0, 1535.0, 1543.0, 1532.0, 1542.0, 1532.0, 1533.0, 1531.0, 1527.0, 1538.0, 1531.0, 1536.0, 1530.0, 1530.0, 1534.0, 1531.0, 1538.0, 1535.0, 1532.0, 1537.0, 1533.0, 1542.0, 1532.0, 1538.0, 1532.0, 1532.0, 1535.0, 1533.0, 1540.0, 1533.0, 1539.0, 1534.0, 1541.0, 1532.0, 1539.0, 1530.0, 1534.0, 1537.0, 1532.0, 1541.0, 1535.0, 1542.0, 1536.0, 1542.0, 1537.0, 1539.0, 1535.0, 1536.0, 1539.0, 1541.0, 1533.0, 1539.0, 1529.0, 1532.0, 1538.0, 1529.0, 1539.0, 1531.0, 1533.0, 1537.0, 1530.0, 1539.0, 1533.0, 1536.0, 1531.0, 1534.0, 1536.0, 1532.0, 1538.0, 1531.0, 1533.0, 1530.0, 1532.0, 1534.0, 1536.0, 1540.0, 1532.0, 1541.0, 1533.0, 1535.0, 1532.0, 1528.0, 1536.0, 1532.0, 1536.0, 1538.0, 1533.0, 1539.0, 1532.0, 1533.0, 1536.0, 1539.0, 1538.0, 1543.0, 1535.0, 1532.0, 1527.0, 1534.0, 1536.0, 1532.0, 1536.0, 1530.0, 1533.0, 1536.0, 1533.0, 1538.0, 1536.0, 1530.0, 1534.0, 1530.0, 1541.0, 1538.0, 1544.0, 1532.0, 1539.0, 1534.0, 1531.0, 1532.0, 1538.0, 1540.0, 1533.0, 1535.0, 1528.0, 1535.0, 1537.0, 1527.0, 1532.0, 1530.0, 1530.0, 1539.0, 1532.0, 1536.0, 1538.0, 1532.0, 1536.0, 1531.0, 1538.0, 1533.0, 1544.0, 1533.0, 1537.0, 1538.0, 1533.0, 1532.0, 1533.0, 1531.0, 1538.0, 1529.0, 1530.0, 1536.0, 1532.0, 1535.0, 1534.0, 1532.0, 1538.0, 1532.0, 1532.0, 1537.0, 1534.0, 1540.0, 1536.0, 1535.0, 1540.0, 1535.0, 1531.0, 1533.0, 1539.0, 1537.0, 1531.0, 1540.0, 1534.0, 1535.0, 1536.0, 1534.0, 1537.0, 1530.0, 1536.0, 1533.0, 1536.0, 1533.0, 1535.0, 1535.0, 1531.0, 1538.0, 1529.0, 1527.0, 1535.0, 1530.0, 1535.0, 1531.0, 1529.0, 1537.0, 1532.0, 1539.0, 1534.0, 1536.0, 1537.0, 1533.0, 1541.0, 1534.0, 1532.0, 1541.0, 1537.0, 1538.0, 1536.0, 1541.0, 1533.0, 1537.0, 1534.0, 1526.0, 1534.0, 1528.0, 1530.0, 1536.0, 1526.0, 1535.0, 1529.0, 1531.0, 1537.0, 1536.0, 1531.0, 1522.0, 1528.0, 1526.0, 1523.0, 1526.0, 1532.0, 1537.0, 1543.0, 1534.0, 1538.0]
    },
    "slices": {}
  }
}