{
  "AcquisitionMatrixPE": 70,
  "AcquisitionNumber": 1,
  "AcquisitionTime": "11:52:25.770000",
  "BandwidthPerPixelPhaseEncode": 38.873,
  "BaseResolution": 70,
  "BodyPartExamined": "HEAD",
  "ConsistencyInfo": "N4_VE11B_LATEST_20150530",
  "ConversionSoftware": "dcm2niix",
  "ConversionSoftwareVersion": "v1.0.20190410  GCC6.3.0",
  "DerivedVendorReportedEchoSpacing": 0.000489996,
  "DeviceSerialNumber": "66088",
  "DwellTime": 2.9e-06,
  "EchoTime": 0.03,
  "EchoTrainLength": 53,
  "EffectiveEchoSpacing": 0.000367497,
  "FlipAngle": 90,
  "ImageOrientationPatientDICOM": [0.999372, -0.0239625, -0.026089, 0.00872134, 0.880253, -0.474424],
  "ImageType": [
    "ORIGINAL",
    "PRIMARY",
    "M",
    "ND",
    "NORM",
    "MOSAIC"
],
  "ImagingFrequency": 123.191,
  "InPlanePhaseEncodingDirectionDICOM": "COL",
  "InstitutionAddress": "Street_StreetNo_City_District_IR_ZIP",
  "InstitutionName": "NBML",
  "InstitutionalDepartmentName": "Department",
  "MRAcquisitionType": "2D",
  "MagneticFieldStrength": 3,
  "Manufacturer": "Siemens",
  "ManufacturersModelName": "Prisma",
  "Modality": "MR",
  "ParallelReductionFactorInPlane": 2,
  "PartialFourier": 1,
  "PatientPosition": "HFS",
  "PercentPhaseFOV": 100,
  "PhaseEncodingDirection": "j-",
  "PhaseEncodingSteps": 105,
  "PhaseOversampling": 0.5,
  "PhaseResolution": 1,
  "PixelBandwidth": 2465,
  "ProcedureStepDescription": "NBML_Project_P-96169-Ebrahiminiya",
  "ProtocolName": "ep2d_p2_Task_3.5_measurment:237",
  "PulseSequenceDetails": "%SiemensSeq%_ep2d_pace",
  "ReceiveCoilActiveElements": "HC1-7;NC1",
  "ReceiveCoilName": "HeadNeck_64",
  "ReconMatrixPE": 70,
  "RefLinesPE": 24,
  "RepetitionTime": 2,
  "SAR": 0.0877137,
  "ScanOptions": "FS",
  "ScanningSequence": "EP",
  "SequenceName": "_epfid2d1_70",
  "SequenceVariant": "SK_OSP",
  "SeriesDescription": "ep2d_p2_Task_3.5_measurment:237",
  "SeriesNumber": 10,
  "ShimSetting": [2592, -4416, -3267, 350, 4, 92, 1, 26],
  "SliceThickness": 3.5,
  "SliceTiming": [0.99, 0, 1.05, 0.06, 1.1075, 0.1175, 1.165, 0.175, 1.2225, 0.2325, 1.2825, 0.2925, 1.34, 0.35, 1.3975, 0.4075, 1.4575, 0.4675, 1.515, 0.525, 1.5725, 0.5825, 1.63, 0.6425, 1.69, 0.7, 1.7475, 0.7575, 1.805, 0.815, 1.865, 0.875, 1.9225, 0.9325],
  "SoftwareVersions": "syngo_MR_E11",
  "SpacingBetweenSlices": 3.85,
  "StationName": "AWP66088",
  "TaskName": "categorySelectivity",
  "TotalReadoutTime": 0.0253573,
  "TxRefAmp": 245.08,
  "dcmmeta_affine": [
    [-3.5406336784362793, 0.0308984462171793, -0.13218334317207336, 126.00667572021484],
    [0.08489586412906647, 3.1186118125915527, -1.8245092630386353, -80.24187469482422],
    [-0.09242962300777435, 1.6808158159255981, 3.38765287399292, -91.57656860351562],
    [0.0, 0.0, 0.0, 1.0]
],
  "dcmmeta_reorient_transform": [
    [0.0, -1.0, 0.0, 69.0],
    [1.0, 0.0, 0.0, 0.0],
    [0.0, 0.0, 1.0, 0.0],
    [0.0, 0.0, 0.0, 1.0]
],
  "dcmmeta_shape": [70, 70, 34, 237],
  "dcmmeta_slice_dim": 2,
  "dcmmeta_version": 0.6,
  "global": {
    "const": {
      "AccessionNumber": "M.BRZ",
      "AcquisitionMatrix": [70, 0, 0, 70],
      "AngioFlag": "N",
      "BitsAllocated": 16,
      "BitsStored": 12,
      "BodyPartExamined": "HEAD",
      "Columns": 420,
      "EchoNumbers": 1,
      "EchoTime": 30.0,
      "EchoTrainLength": 53,
      "FlipAngle": 90.0,
      "HighBit": 11,
      "ImageOrientationPatient": [0.99937238321893, -0.0239625416044, -0.0260890064812, 0.00872133538138, 0.88025336090612, -0.4744238178282],
      "ImagePositionPatient": [-753.15677674331, -665.84265969278, 334.71767619968],
      "ImageType": [
        "ORIGINAL",
        "PRIMARY",
        "M",
        "ND",
        "NORM",
        "MOSAIC"
],
      "ImagedNucleus": "1H",
      "ImagingFrequency": 123.191152,
      "InPlanePhaseEncodingDirection": "COL",
      "MRAcquisitionType": "2D",
      "MagneticFieldStrength": 3.0,
      "Manufacturer": "SIEMENS",
      "ManufacturerModelName": "Prisma",
      "Modality": "MR",
      "NumberOfAverages": 1.0,
      "NumberOfPhaseEncodingSteps": 105,
      "PercentPhaseFieldOfView": 100.0,
      "PercentSampling": 100.0,
      "PerformedProcedureStepStartTime": "104422.814000",
      "PhotometricInterpretation": "MONOCHROME2",
      "PixelBandwidth": 2465.0,
      "PixelRepresentation": 0,
      "PixelSpacing": [3.542857170105, 3.542857170105],
      "ProtocolName": "ep2d_p2_Task_3.5_measurment:237",
      "RepetitionTime": 2000.0,
      "Rows": 420,
      "SAR": 0.08771370424282,
      "SamplesPerPixel": 1,
      "ScanOptions": "FS",
      "ScanningSequence": "EP",
      "SequenceName": "*epfid2d1_70",
      "SequenceVariant": [
        "SK",
        "OSP"
],
      "SeriesDescription": "ep2d_p2_Task_3.5_measurment:237",
      "SeriesNumber": 10,
      "SeriesTime": "115308.831000",
      "SliceLocation": -46.878850934155,
      "SliceThickness": 3.5,
      "SmallestImagePixelValue": 0,
      "SoftwareVersions": "syngo MR E11",
      "SpacingBetweenSlices": 3.8499998368259,
      "SpecificCharacterSet": "ISO_IR 100",
      "StudyID": "1",
      "StudyTime": "104422.743000",
      "TransmitCoilName": "Body",
      "VariableFlipAngleFlag": "N",
      "WindowCenterWidthExplanation": "Algo1",
      "dBdt": 0.0},
    "slices": {}
  },
  "time": {
    "samples": {
      "AcquisitionNumber": [1, 2, 3, 4, 5, 6, 7, 8, 9, 10, 11, 12, 13, 14, 15, 16, 17, 18, 19, 20, 21, 22, 23, 24, 25, 26, 27, 28, 29, 30, 31, 32, 33, 34, 35, 36, 37, 38, 39, 40, 41, 42, 43, 44, 45, 46, 47, 48, 49, 50, 51, 52, 53, 54, 55, 56, 57, 58, 59, 60, 61, 62, 63, 64, 65, 66, 67, 68, 69, 70, 71, 72, 73, 74, 75, 76, 77, 78, 79, 80, 81, 82, 83, 84, 85, 86, 87, 88, 89, 90, 91, 92, 93, 94, 95, 96, 97, 98, 99, 100, 101, 102, 103, 104, 105, 106, 107, 108, 109, 110, 111, 112, 113, 114, 115, 116, 117, 118, 119, 120, 121, 122, 123, 124, 125, 126, 127, 128, 129, 130, 131, 132, 133, 134, 135, 136, 137, 138, 139, 140, 141, 142, 143, 144, 145, 146, 147, 148, 149, 150, 151, 152, 153, 154, 155, 156, 157, 158, 159, 160, 161, 162, 163, 164, 165, 166, 167, 168, 169, 170, 171, 172, 173, 174, 175, 176, 177, 178, 179, 180, 181, 182, 183, 184, 185, 186, 187, 188, 189, 190, 191, 192, 193, 194, 195, 196, 197, 198, 199, 200, 201, 202, 203, 204, 205, 206, 207, 208, 209, 210, 211, 212, 213, 214, 215, 216, 217, 218, 219, 220, 221, 222, 223, 224, 225, 226, 227, 228, 229, 230, 231, 232, 233, 234, 235, 236, 237],
      "AcquisitionTime": ["115225.770000", "115227.770000", "115229.770000", "115231.770000", "115233.770000", "115235.770000", "115237.770000", "115239.770000", "115241.770000", "115243.770000", "115245.770000", "115247.770000", "115249.770000", "115251.770000", "115253.770000", "115255.770000", "115257.770000", "115259.770000", "115301.770000", "115303.770000", "115305.770000", "115307.770000", "115309.770000", "115311.770000", "115313.770000", "115315.770000", "115317.770000", "115319.770000", "115321.770000", "115323.770000", "115325.770000", "115327.770000", "115329.770000", "115331.770000", "115333.770000", "115335.770000", "115337.770000", "115339.770000", "115341.770000", "115343.770000", "115345.770000", "115347.770000", "115349.770000", "115351.770000", "115353.770000", "115355.770000", "115357.770000", "115359.770000", "115401.770000", "115403.770000", "115405.770000", "115407.770000", "115409.770000", "115411.770000", "115413.770000", "115415.770000", "115417.770000", "115419.770000", "115421.770000", "115423.770000", "115425.770000", "115427.770000", "115429.770000", "115431.770000", "115433.770000", "115435.770000", "115437.770000", "115439.770000", "115441.770000", "115443.770000", "115445.770000", "115447.770000", "115449.770000", "115451.770000", "115453.770000", "115455.770000", "115457.770000", "115459.770000", "115501.770000", "115503.770000", "115505.770000", "115507.770000", "115509.770000", "115511.770000", "115513.770000", "115515.770000", "115517.770000", "115519.770000", "115521.770000", "115523.770000", "115525.770000", "115527.770000", "115529.770000", "115531.770000", "115533.770000", "115535.770000", "115537.770000", "115539.770000", "115541.770000", "115543.770000", "115545.770000", "115547.770000", "115549.770000", "115551.770000", "115553.770000", "115555.770000", "115557.770000", "115559.770000", "115601.770000", "115603.770000", "115605.770000", "115607.770000", "115609.770000", "115611.770000", "115613.770000", "115615.770000", "115617.770000", "115619.770000", "115621.770000", "115623.770000", "115625.770000", "115627.770000", "115629.770000", "115631.770000", "115633.770000", "115635.770000", "115637.770000", "115639.770000", "115641.770000", "115643.770000", "115645.770000", "115647.770000", "115649.770000", "115651.770000", "115653.770000", "115655.770000", "115657.770000", "115659.770000", "115701.770000", "115703.770000", "115705.770000", "115707.770000", "115709.770000", "115711.770000", "115713.770000", "115715.770000", "115717.770000", "115719.770000", "115721.770000", "115723.770000", "115725.770000", "115727.770000", "115729.770000", "115731.770000", "115733.770000", "115735.770000", "115737.770000", "115739.770000", "115741.770000", "115743.770000", "115745.770000", "115747.770000", "115749.770000", "115751.770000", "115753.770000", "115755.770000", "115757.770000", "115759.770000", "115801.770000", "115803.770000", "115805.770000", "115807.770000", "115809.770000", "115811.770000", "115813.770000", "115815.770000", "115817.770000", "115819.770000", "115821.770000", "115823.770000", "115825.770000", "115827.770000", "115829.770000", "115831.770000", "115833.770000", "115835.770000", "115837.770000", "115839.770000", "115841.770000", "115843.770000", "115845.770000", "115847.770000", "115849.770000", "115851.770000", "115853.770000", "115855.770000", "115857.770000", "115859.770000", "115901.770000", "115903.770000", "115905.770000", "115907.770000", "115909.770000", "115911.770000", "115913.770000", "115915.770000", "115917.770000", "115919.770000", "115921.770000", "115923.770000", "115925.770000", "115927.770000", "115929.770000", "115931.770000", "115933.770000", "115935.770000", "115937.770000", "115939.770000", "115941.770000", "115943.770000", "115945.770000", "115947.770000", "115949.770000", "115951.770000", "115953.770000", "115955.770000", "115957.770000", "115959.770000", "120001.770000", "120003.770000", "120005.770000", "120007.770000", "120009.770000", "120011.770000", "120013.770000", "120015.770000", "120017.770000"],
      "ContentTime": ["115308.835000", "115308.839000", "115308.842000", "115308.845000", "115308.848000", "115308.851000", "115308.854000", "115308.871000", "115308.875000", "115308.878000", "115308.881000", "115308.884000", "115308.887000", "115308.890000", "115308.894000", "115308.897000", "115308.900000", "115308.903000", "115308.906000", "115308.910000", "115308.913000", "115348.828000", "115348.840000", "115348.843000", "115348.845000", "115348.847000", "115348.850000", "115348.852000", "115348.854000", "115348.857000", "115348.859000", "115348.861000", "115348.864000", "115348.866000", "115348.868000", "115348.871000", "115348.873000", "115348.875000", "115348.878000", "115348.880000", "115348.883000", "115428.831000", "115428.835000", "115428.838000", "115428.842000", "115428.845000", "115428.848000", "115428.851000", "115428.854000", "115428.857000", "115428.860000", "115428.863000", "115428.866000", "115428.869000", "115428.872000", "115428.875000", "115428.878000", "115428.881000", "115428.884000", "115428.887000", "115428.891000", "115508.830000", "115508.833000", "115508.836000", "115508.839000", "115508.842000", "115508.845000", "115508.848000", "115508.851000", "115508.854000", "115508.857000", "115508.860000", "115508.863000", "115508.867000", "115508.870000", "115508.873000", "115508.876000", "115508.879000", "115508.883000", "115508.886000", "115508.889000", "115548.827000", "115548.830000", "115548.833000", "115548.835000", "115548.838000", "115548.840000", "115548.843000", "115548.845000", "115548.848000", "115548.850000", "115548.853000", "115548.855000", "115548.858000", "115548.860000", "115548.862000", "115548.865000", "115548.867000", "115548.870000", "115548.872000", "115548.875000", "115628.829000", "115628.833000", "115628.836000", "115628.839000", "115628.842000", "115628.845000", "115628.848000", "115628.851000", "115628.854000", "115628.857000", "115628.860000", "115628.863000", "115628.866000", "115628.871000", "115628.874000", "115628.877000", "115628.880000", "115628.883000", "115628.886000", "115628.889000", "115708.828000", "115708.831000", "115708.835000", "115708.838000", "115708.841000", "115708.844000", "115708.847000", "115708.850000", "115708.853000", "115708.856000", "115708.863000", "115708.866000", "115708.869000", "115708.873000", "115708.878000", "115708.881000", "115708.884000", "115708.888000", "115708.892000", "115708.895000", "115748.828000", "115748.830000", "115748.833000", "115748.835000", "115748.838000", "115748.840000", "115748.843000", "115748.845000", "115748.848000", "115748.850000", "115748.853000", "115748.855000", "115748.858000", "115748.860000", "115748.863000", "115748.865000", "115748.868000", "115748.870000", "115748.873000", "115748.875000", "115828.831000", "115828.836000", "115828.839000", "115828.842000", "115828.845000", "115828.848000", "115828.851000", "115828.854000", "115828.857000", "115828.860000", "115828.863000", "115828.866000", "115828.869000", "115828.872000", "115828.875000", "115828.878000", "115828.882000", "115828.885000", "115828.888000", "115828.891000", "115908.829000", "115908.833000", "115908.836000", "115908.839000", "115908.842000", "115908.845000", "115908.848000", "115908.851000", "115908.854000", "115908.857000", "115908.861000", "115908.864000", "115908.867000", "115908.871000", "115908.874000", "115908.877000", "115908.880000", "115908.883000", "115908.886000", "115908.890000", "115948.828000", "115948.830000", "115948.833000", "115948.835000", "115948.837000", "115948.840000", "115948.842000", "115948.844000", "115948.847000", "115948.849000", "115948.851000", "115948.854000", "115948.856000", "115948.858000", "115948.861000", "115948.863000", "115948.865000", "115948.868000", "115948.870000", "115948.872000", "120018.965000", "120018.971000", "120018.974000", "120018.977000", "120018.979000", "120018.982000", "120018.985000", "120018.987000", "120018.990000", "120018.992000", "120018.995000", "120018.998000", "120019.001000", "120019.004000", "120019.006000", "120019.009000"],
      "InstanceCreationTime": ["115308.835000", "115308.839000", "115308.842000", "115308.845000", "115308.848000", "115308.851000", "115308.854000", "115308.871000", "115308.875000", "115308.878000", "115308.881000", "115308.884000", "115308.887000", "115308.890000", "115308.894000", "115308.897000", "115308.900000", "115308.903000", "115308.906000", "115308.910000", "115308.913000", "115348.828000", "115348.840000", "115348.843000", "115348.845000", "115348.847000", "115348.850000", "115348.852000", "115348.854000", "115348.857000", "115348.859000", "115348.861000", "115348.864000", "115348.866000", "115348.868000", "115348.871000", "115348.873000", "115348.875000", "115348.878000", "115348.880000", "115348.883000", "115428.831000", "115428.835000", "115428.838000", "115428.842000", "115428.845000", "115428.848000", "115428.851000", "115428.854000", "115428.857000", "115428.860000", "115428.863000", "115428.866000", "115428.869000", "115428.872000", "115428.875000", "115428.878000", "115428.881000", "115428.884000", "115428.887000", "115428.891000", "115508.830000", "115508.833000", "115508.836000", "115508.839000", "115508.842000", "115508.845000", "115508.848000", "115508.851000", "115508.854000", "115508.857000", "115508.860000", "115508.863000", "115508.867000", "115508.870000", "115508.873000", "115508.876000", "115508.879000", "115508.883000", "115508.886000", "115508.889000", "115548.827000", "115548.830000", "115548.833000", "115548.835000", "115548.838000", "115548.840000", "115548.843000", "115548.845000", "115548.848000", "115548.850000", "115548.853000", "115548.855000", "115548.858000", "115548.860000", "115548.862000", "115548.865000", "115548.867000", "115548.870000", "115548.872000", "115548.875000", "115628.829000", "115628.833000", "115628.836000", "115628.839000", "115628.842000", "115628.845000", "115628.848000", "115628.851000", "115628.854000", "115628.857000", "115628.860000", "115628.863000", "115628.866000", "115628.871000", "115628.874000", "115628.877000", "115628.880000", "115628.883000", "115628.886000", "115628.889000", "115708.828000", "115708.831000", "115708.835000", "115708.838000", "115708.841000", "115708.844000", "115708.847000", "115708.850000", "115708.853000", "115708.856000", "115708.863000", "115708.866000", "115708.869000", "115708.873000", "115708.878000", "115708.881000", "115708.884000", "115708.888000", "115708.892000", "115708.895000", "115748.828000", "115748.830000", "115748.833000", "115748.835000", "115748.838000", "115748.840000", "115748.843000", "115748.845000", "115748.848000", "115748.850000", "115748.853000", "115748.855000", "115748.858000", "115748.860000", "115748.863000", "115748.865000", "115748.868000", "115748.870000", "115748.873000", "115748.875000", "115828.831000", "115828.836000", "115828.839000", "115828.842000", "115828.845000", "115828.848000", "115828.851000", "115828.854000", "115828.857000", "115828.860000", "115828.863000", "115828.866000", "115828.869000", "115828.872000", "115828.875000", "115828.878000", "115828.882000", "115828.885000", "115828.888000", "115828.891000", "115908.829000", "115908.833000", "115908.836000", "115908.839000", "115908.842000", "115908.845000", "115908.848000", "115908.851000", "115908.854000", "115908.857000", "115908.861000", "115908.864000", "115908.867000", "115908.871000", "115908.874000", "115908.877000", "115908.880000", "115908.883000", "115908.886000", "115908.890000", "115948.828000", "115948.830000", "115948.833000", "115948.835000", "115948.837000", "115948.840000", "115948.842000", "115948.844000", "115948.847000", "115948.849000", "115948.851000", "115948.854000", "115948.856000", "115948.858000", "115948.861000", "115948.863000", "115948.865000", "115948.868000", "115948.870000", "115948.872000", "120018.965000", "120018.971000", "120018.974000", "120018.977000", "120018.979000", "120018.982000", "120018.985000", "120018.987000", "120018.990000", "120018.992000", "120018.995000", "120018.998000", "120019.001000", "120019.004000", "120019.006000", "120019.009000"],
      "InstanceNumber": [1, 2, 3, 4, 5, 6, 7, 8, 9, 10, 11, 12, 13, 14, 15, 16, 17, 18, 19, 20, 21, 22, 23, 24, 25, 26, 27, 28, 29, 30, 31, 32, 33, 34, 35, 36, 37, 38, 39, 40, 41, 42, 43, 44, 45, 46, 47, 48, 49, 50, 51, 52, 53, 54, 55, 56, 57, 58, 59, 60, 61, 62, 63, 64, 65, 66, 67, 68, 69, 70, 71, 72, 73, 74, 75, 76, 77, 78, 79, 80, 81, 82, 83, 84, 85, 86, 87, 88, 89, 90, 91, 92, 93, 94, 95, 96, 97, 98, 99, 100, 101, 102, 103, 104, 105, 106, 107, 108, 109, 110, 111, 112, 113, 114, 115, 116, 117, 118, 119, 120, 121, 122, 123, 124, 125, 126, 127, 128, 129, 130, 131, 132, 133, 134, 135, 136, 137, 138, 139, 140, 141, 142, 143, 144, 145, 146, 147, 148, 149, 150, 151, 152, 153, 154, 155, 156, 157, 158, 159, 160, 161, 162, 163, 164, 165, 166, 167, 168, 169, 170, 171, 172, 173, 174, 175, 176, 177, 178, 179, 180, 181, 182, 183, 184, 185, 186, 187, 188, 189, 190, 191, 192, 193, 194, 195, 196, 197, 198, 199, 200, 201, 202, 203, 204, 205, 206, 207, 208, 209, 210, 211, 212, 213, 214, 215, 216, 217, 218, 219, 220, 221, 222, 223, 224, 225, 226, 227, 228, 229, 230, 231, 232, 233, 234, 235, 236, 237],
      "LargestImagePixelValue": [1999, 2212, 1945, 1768, 2402, 1932, 2719, 2368, 1740, 1998, 1992, 1681, 1997, 1722, 2162, 1880, 2132, 1679, 1751, 2427, 1894, 2255, 1649, 1744, 1909, 1910, 1619, 1697, 2397, 1748, 2406, 2116, 1683, 2237, 1857, 1749, 2473, 1712, 1860, 2684, 2048, 1724, 1749, 1986, 2170, 1729, 1810, 2203, 1667, 1684, 1709, 2305, 2192, 1950, 1699, 2595, 1792, 1691, 2579, 1700, 1764, 2433, 1880, 1891, 2093, 1911, 1755, 1882, 2066, 1816, 2087, 1794, 1777, 2184, 2010, 1633, 1726, 2204, 1772, 2050, 3022, 2066, 1734, 1859, 1773, 2279, 2142, 1836, 1715, 2205, 1670, 1698, 1796, 1966, 1772, 1837, 2003, 2147, 1786, 2572, 2023, 1707, 2085, 1764, 1955, 1716, 2313, 1907, 1839, 1921, 2161, 1722, 2122, 1801, 1965, 2709, 1718, 1724, 2160, 1835, 1705, 2129, 1656, 2258, 2239, 1673, 1844, 2116, 1713, 1806, 1781, 2209, 1684, 1678, 1994, 1687, 2506, 2019, 1865, 1920, 1727, 1730, 1895, 1637, 1739, 2044, 2349, 1763, 1877, 2371, 1729, 1816, 1962, 2155, 1644, 1900, 2077, 1656, 1895, 1740, 1776, 1692, 2206, 1952, 1830, 1976, 1771, 1861, 1666, 2069, 1672, 2515, 1741, 1892, 2566, 1836, 1840, 2291, 1664, 2000, 2099, 1687, 1943, 1821, 1617, 1964, 1932, 1952, 1771, 1887, 1801, 1808, 2482, 1916, 1816, 2317, 1806, 1710, 2453, 1696, 1793, 2046, 1700, 2055, 1708, 2572, 1772, 1695, 2619, 1721, 1657, 2117, 1920, 1704, 2489, 2270, 1726, 1883, 1827, 1789, 2454, 1958, 1715, 2005, 1732, 1726, 2702, 1757, 1663, 1742, 1768, 1741, 1903, 1702, 2481, 1696, 1767],
      "WindowCenter": [696.0, 697.0, 698.0, 697.0, 699.0, 696.0, 698.0, 697.0, 694.0, 695.0, 695.0, 694.0, 694.0, 694.0, 695.0, 694.0, 695.0, 695.0, 696.0, 696.0, 694.0, 695.0, 694.0, 694.0, 694.0, 695.0, 694.0, 697.0, 699.0, 696.0, 698.0, 697.0, 695.0, 697.0, 696.0, 696.0, 697.0, 696.0, 696.0, 697.0, 696.0, 694.0, 694.0, 695.0, 696.0, 695.0, 695.0, 697.0, 695.0, 695.0, 696.0, 698.0, 697.0, 695.0, 695.0, 698.0, 696.0, 695.0, 697.0, 695.0, 696.0, 698.0, 696.0, 696.0, 697.0, 698.0, 697.0, 697.0, 696.0, 695.0, 697.0, 695.0, 695.0, 696.0, 696.0, 695.0, 697.0, 699.0, 696.0, 696.0, 697.0, 695.0, 693.0, 694.0, 695.0, 696.0, 695.0, 694.0, 694.0, 696.0, 694.0, 695.0, 695.0, 695.0, 696.0, 697.0, 697.0, 698.0, 696.0, 697.0, 696.0, 695.0, 696.0, 695.0, 695.0, 695.0, 697.0, 697.0, 697.0, 696.0, 696.0, 695.0, 696.0, 695.0, 695.0, 697.0, 694.0, 694.0, 695.0, 694.0, 694.0, 696.0, 695.0, 696.0, 696.0, 694.0, 695.0, 696.0, 693.0, 694.0, 695.0, 696.0, 695.0, 695.0, 696.0, 697.0, 699.0, 696.0, 695.0, 696.0, 695.0, 695.0, 696.0, 696.0, 696.0, 697.0, 698.0, 696.0, 696.0, 697.0, 695.0, 694.0, 695.0, 695.0, 694.0, 695.0, 695.0, 694.0, 696.0, 695.0, 695.0, 696.0, 698.0, 697.0, 695.0, 695.0, 694.0, 694.0, 696.0, 697.0, 696.0, 698.0, 695.0, 695.0, 697.0, 695.0, 696.0, 697.0, 694.0, 695.0, 695.0, 694.0, 694.0, 695.0, 695.0, 696.0, 696.0, 696.0, 695.0, 697.0, 697.0, 696.0, 698.0, 696.0, 696.0, 697.0, 696.0, 696.0, 698.0, 696.0, 695.0, 696.0, 695.0, 697.0, 696.0, 699.0, 696.0, 695.0, 697.0, 696.0, 695.0, 697.0, 696.0, 696.0, 697.0, 697.0, 694.0, 695.0, 696.0, 696.0, 698.0, 696.0, 695.0, 696.0, 696.0, 695.0, 698.0, 695.0, 694.0, 694.0, 695.0, 696.0, 696.0, 696.0, 697.0, 697.0, 696.0],
      "WindowWidth": [1527.0, 1533.0, 1534.0, 1532.0, 1537.0, 1529.0, 1534.0, 1531.0, 1522.0, 1526.0, 1526.0, 1522.0, 1524.0, 1522.0, 1526.0, 1522.0, 1527.0, 1525.0, 1528.0, 1530.0, 1523.0, 1526.0, 1521.0, 1523.0, 1523.0, 1526.0, 1524.0, 1530.0, 1539.0, 1529.0, 1534.0, 1531.0, 1525.0, 1532.0, 1529.0, 1527.0, 1532.0, 1528.0, 1527.0, 1533.0, 1529.0, 1523.0, 1523.0, 1526.0, 1528.0, 1525.0, 1527.0, 1531.0, 1526.0, 1526.0, 1529.0, 1534.0, 1531.0, 1526.0, 1525.0, 1535.0, 1528.0, 1525.0, 1533.0, 1526.0, 1527.0, 1535.0, 1528.0, 1527.0, 1531.0, 1533.0, 1530.0, 1530.0, 1529.0, 1526.0, 1529.0, 1526.0, 1525.0, 1528.0, 1529.0, 1526.0, 1533.0, 1537.0, 1529.0, 1530.0, 1533.0, 1526.0, 1520.0, 1523.0, 1525.0, 1528.0, 1526.0, 1522.0, 1521.0, 1528.0, 1523.0, 1524.0, 1526.0, 1526.0, 1529.0, 1531.0, 1532.0, 1533.0, 1527.0, 1533.0, 1528.0, 1524.0, 1527.0, 1524.0, 1526.0, 1524.0, 1533.0, 1530.0, 1529.0, 1528.0, 1530.0, 1525.0, 1528.0, 1524.0, 1526.0, 1532.0, 1522.0, 1521.0, 1524.0, 1523.0, 1523.0, 1529.0, 1524.0, 1528.0, 1528.0, 1523.0, 1526.0, 1527.0, 1521.0, 1524.0, 1525.0, 1529.0, 1525.0, 1525.0, 1530.0, 1532.0, 1538.0, 1528.0, 1526.0, 1528.0, 1524.0, 1526.0, 1529.0, 1528.0, 1529.0, 1531.0, 1533.0, 1527.0, 1527.0, 1531.0, 1524.0, 1524.0, 1524.0, 1527.0, 1523.0, 1525.0, 1526.0, 1523.0, 1527.0, 1526.0, 1525.0, 1529.0, 1535.0, 1531.0, 1526.0, 1525.0, 1522.0, 1521.0, 1527.0, 1533.0, 1528.0, 1535.0, 1526.0, 1526.0, 1531.0, 1526.0, 1527.0, 1530.0, 1523.0, 1525.0, 1526.0, 1521.0, 1523.0, 1526.0, 1524.0, 1528.0, 1528.0, 1528.0, 1526.0, 1530.0, 1530.0, 1529.0, 1535.0, 1528.0, 1528.0, 1533.0, 1528.0, 1527.0, 1535.0, 1527.0, 1526.0, 1529.0, 1525.0, 1530.0, 1528.0, 1536.0, 1527.0, 1525.0, 1533.0, 1527.0, 1527.0, 1531.0, 1529.0, 1527.0, 1531.0, 1530.0, 1523.0, 1525.0, 1529.0, 1528.0, 1533.0, 1527.0, 1525.0, 1528.0, 1528.0, 1526.0, 1534.0, 1525.0, 1523.0, 1522.0, 1524.0, 1527.0, 1529.0, 1528.0, 1532.0, 1530.0, 1527.0]
    },
    "slices": {}
  }
}