{
  "AcquisitionMatrixPE": 70,
  "AcquisitionNumber": 1,
  "AcquisitionTime": "11:26:12.092500",
  "BandwidthPerPixelPhaseEncode": 38.873,
  "BaseResolution": 70,
  "BodyPartExamined": "HEAD",
  "ConsistencyInfo": "N4_VE11B_LATEST_20150530",
  "ConversionSoftware": "dcm2niix",
  "ConversionSoftwareVersion": "v1.0.20190410  GCC6.3.0",
  "DerivedVendorReportedEchoSpacing": 0.000489996,
  "DeviceSerialNumber": "66088",
  "DwellTime": 2.9e-06,
  "EchoTime": 0.03,
  "EchoTrainLength": 53,
  "EffectiveEchoSpacing": 0.000367497,
  "FlipAngle": 90,
  "ImageOrientationPatientDICOM": [0.999372, -0.0239625, -0.026089, 0.00872134, 0.880253, -0.474424],
  "ImageType": [
    "ORIGINAL",
    "PRIMARY",
    "M",
    "ND",
    "NORM",
    "MOSAIC"
],
  "ImagingFrequency": 123.191,
  "InPlanePhaseEncodingDirectionDICOM": "COL",
  "InstitutionAddress": "Street_StreetNo_City_District_IR_ZIP",
  "InstitutionName": "NBML",
  "InstitutionalDepartmentName": "Department",
  "MRAcquisitionType": "2D",
  "MagneticFieldStrength": 3,
  "Manufacturer": "Siemens",
  "ManufacturersModelName": "Prisma",
  "Modality": "MR",
  "ParallelReductionFactorInPlane": 2,
  "PartialFourier": 1,
  "PatientPosition": "HFS",
  "PercentPhaseFOV": 100,
  "PhaseEncodingDirection": "j-",
  "PhaseEncodingSteps": 105,
  "PhaseOversampling": 0.5,
  "PhaseResolution": 1,
  "PixelBandwidth": 2465,
  "ProcedureStepDescription": "NBML_Project_P-96169-Ebrahiminiya",
  "ProtocolName": "ep2d_p2_Task_3.5_measurment:237",
  "PulseSequenceDetails": "%SiemensSeq%_ep2d_pace",
  "ReceiveCoilActiveElements": "HC1-7;NC1",
  "ReceiveCoilName": "HeadNeck_64",
  "ReconMatrixPE": 70,
  "RefLinesPE": 24,
  "RepetitionTime": 2,
  "SAR": 0.0877137,
  "ScanOptions": "FS",
  "ScanningSequence": "EP",
  "SequenceName": "_epfid2d1_70",
  "SequenceVariant": "SK_OSP",
  "SeriesDescription": "ep2d_p2_Task_3.5_measurment:237",
  "SeriesNumber": 7,
  "ShimSetting": [2592, -4416, -3267, 350, 4, 92, 1, 26],
  "SliceThickness": 3.5,
  "SliceTiming": [0.99, 0, 1.05, 0.06, 1.1075, 0.1175, 1.165, 0.175, 1.2225, 0.2325, 1.2825, 0.2925, 1.34, 0.35, 1.3975, 0.4075, 1.4575, 0.4675, 1.515, 0.525, 1.5725, 0.5825, 1.63, 0.64, 1.69, 0.7, 1.7475, 0.7575, 1.805, 0.815, 1.865, 0.875, 1.9225, 0.9325],
  "SoftwareVersions": "syngo_MR_E11",
  "SpacingBetweenSlices": 3.85,
  "StationName": "AWP66088",
  "TaskName": "categorySelectivity",
  "TotalReadoutTime": 0.0253573,
  "TxRefAmp": 245.08,
  "dcmmeta_affine": [
    [-3.5406336784362793, 0.0308984462171793, -0.13218334317207336, 126.00667572021484],
    [0.08489586412906647, 3.1186118125915527, -1.8245092630386353, -80.24187469482422],
    [-0.09242962300777435, 1.6808158159255981, 3.38765287399292, -91.57656860351562],
    [0.0, 0.0, 0.0, 1.0]
],
  "dcmmeta_reorient_transform": [
    [0.0, -1.0, 0.0, 69.0],
    [1.0, 0.0, 0.0, 0.0],
    [0.0, 0.0, 1.0, 0.0],
    [0.0, 0.0, 0.0, 1.0]
],
  "dcmmeta_shape": [70, 70, 34, 237],
  "dcmmeta_slice_dim": 2,
  "dcmmeta_version": 0.6,
  "global": {
    "const": {
      "AccessionNumber": "M.BRZ",
      "AcquisitionMatrix": [70, 0, 0, 70],
      "AngioFlag": "N",
      "BitsAllocated": 16,
      "BitsStored": 12,
      "BodyPartExamined": "HEAD",
      "Columns": 420,
      "EchoNumbers": 1,
      "EchoTime": 30.0,
      "EchoTrainLength": 53,
      "FlipAngle": 90.0,
      "HighBit": 11,
      "ImageOrientationPatient": [0.99937238321893, -0.0239625416044, -0.0260890064812, 0.00872133538138, 0.88025336090612, -0.4744238178282],
      "ImagePositionPatient": [-753.15677674331, -665.84265969278, 334.71767619968],
      "ImageType": [
        "ORIGINAL",
        "PRIMARY",
        "M",
        "ND",
        "NORM",
        "MOSAIC"
],
      "ImagedNucleus": "1H",
      "ImagingFrequency": 123.191151,
      "InPlanePhaseEncodingDirection": "COL",
      "MRAcquisitionType": "2D",
      "MagneticFieldStrength": 3.0,
      "Manufacturer": "SIEMENS",
      "ManufacturerModelName": "Prisma",
      "Modality": "MR",
      "NumberOfAverages": 1.0,
      "NumberOfPhaseEncodingSteps": 105,
      "PercentPhaseFieldOfView": 100.0,
      "PercentSampling": 100.0,
      "PerformedProcedureStepStartTime": "104422.814000",
      "PhotometricInterpretation": "MONOCHROME2",
      "PixelBandwidth": 2465.0,
      "PixelRepresentation": 0,
      "PixelSpacing": [3.542857170105, 3.542857170105],
      "ProtocolName": "ep2d_p2_Task_3.5_measurment:237",
      "RepetitionTime": 2000.0,
      "Rows": 420,
      "SAR": 0.08771370424282,
      "SamplesPerPixel": 1,
      "ScanOptions": "FS",
      "ScanningSequence": "EP",
      "SequenceName": "*epfid2d1_70",
      "SequenceVariant": [
        "SK",
        "OSP"
],
      "SeriesDescription": "ep2d_p2_Task_3.5_measurment:237",
      "SeriesNumber": 7,
      "SeriesTime": "112708.829000",
      "SliceLocation": -46.878850934155,
      "SliceThickness": 3.5,
      "SmallestImagePixelValue": 0,
      "SoftwareVersions": "syngo MR E11",
      "SpacingBetweenSlices": 3.8499998368259,
      "SpecificCharacterSet": "ISO_IR 100",
      "StudyID": "1",
      "StudyTime": "104422.743000",
      "TransmitCoilName": "Body",
      "VariableFlipAngleFlag": "N",
      "WindowCenterWidthExplanation": "Algo1",
      "dBdt": 0.0},
    "slices": {}
  },
  "time": {
    "samples": {
      "AcquisitionNumber": [1, 2, 3, 4, 5, 6, 7, 8, 9, 10, 11, 12, 13, 14, 15, 16, 17, 18, 19, 20, 21, 22, 23, 24, 25, 26, 27, 28, 29, 30, 31, 32, 33, 34, 35, 36, 37, 38, 39, 40, 41, 42, 43, 44, 45, 46, 47, 48, 49, 50, 51, 52, 53, 54, 55, 56, 57, 58, 59, 60, 61, 62, 63, 64, 65, 66, 67, 68, 69, 70, 71, 72, 73, 74, 75, 76, 77, 78, 79, 80, 81, 82, 83, 84, 85, 86, 87, 88, 89, 90, 91, 92, 93, 94, 95, 96, 97, 98, 99, 100, 101, 102, 103, 104, 105, 106, 107, 108, 109, 110, 111, 112, 113, 114, 115, 116, 117, 118, 119, 120, 121, 122, 123, 124, 125, 126, 127, 128, 129, 130, 131, 132, 133, 134, 135, 136, 137, 138, 139, 140, 141, 142, 143, 144, 145, 146, 147, 148, 149, 150, 151, 152, 153, 154, 155, 156, 157, 158, 159, 160, 161, 162, 163, 164, 165, 166, 167, 168, 169, 170, 171, 172, 173, 174, 175, 176, 177, 178, 179, 180, 181, 182, 183, 184, 185, 186, 187, 188, 189, 190, 191, 192, 193, 194, 195, 196, 197, 198, 199, 200, 201, 202, 203, 204, 205, 206, 207, 208, 209, 210, 211, 212, 213, 214, 215, 216, 217, 218, 219, 220, 221, 222, 223, 224, 225, 226, 227, 228, 229, 230, 231, 232, 233, 234, 235, 236, 237],
      "AcquisitionTime": ["112612.092500", "112614.092500", "112616.092500", "112618.092500", "112620.092500", "112622.092500", "112624.092500", "112626.092500", "112628.092500", "112630.092500", "112632.092500", "112634.092500", "112636.092500", "112638.092500", "112640.092500", "112642.092500", "112644.092500", "112646.092500", "112648.092500", "112650.092500", "112652.092500", "112654.092500", "112656.092500", "112658.092500", "112700.092500", "112702.092500", "112704.092500", "112706.092500", "112708.092500", "112710.092500", "112712.092500", "112714.092500", "112716.092500", "112718.092500", "112720.092500", "112722.092500", "112724.092500", "112726.092500", "112728.092500", "112730.092500", "112732.092500", "112734.092500", "112736.092500", "112738.092500", "112740.092500", "112742.092500", "112744.092500", "112746.092500", "112748.092500", "112750.092500", "112752.092500", "112754.092500", "112756.092500", "112758.092500", "112800.092500", "112802.092500", "112804.092500", "112806.092500", "112808.092500", "112810.092500", "112812.092500", "112814.092500", "112816.092500", "112818.092500", "112820.092500", "112822.092500", "112824.092500", "112826.092500", "112828.092500", "112830.092500", "112832.092500", "112834.092500", "112836.092500", "112838.092500", "112840.092500", "112842.092500", "112844.092500", "112846.092500", "112848.092500", "112850.092500", "112852.092500", "112854.092500", "112856.092500", "112858.092500", "112900.092500", "112902.092500", "112904.092500", "112906.092500", "112908.092500", "112910.092500", "112912.092500", "112914.092500", "112916.092500", "112918.092500", "112920.092500", "112922.092500", "112924.092500", "112926.092500", "112928.092500", "112930.092500", "112932.092500", "112934.092500", "112936.092500", "112938.092500", "112940.092500", "112942.092500", "112944.092500", "112946.092500", "112948.092500", "112950.092500", "112952.092500", "112954.092500", "112956.092500", "112958.092500", "113000.092500", "113002.092500", "113004.092500", "113006.092500", "113008.092500", "113010.092500", "113012.092500", "113014.092500", "113016.092500", "113018.092500", "113020.092500", "113022.092500", "113024.092500", "113026.092500", "113028.092500", "113030.092500", "113032.092500", "113034.092500", "113036.092500", "113038.092500", "113040.092500", "113042.092500", "113044.092500", "113046.092500", "113048.092500", "113050.092500", "113052.092500", "113054.092500", "113056.092500", "113058.092500", "113100.092500", "113102.092500", "113104.092500", "113106.092500", "113108.092500", "113110.092500", "113112.092500", "113114.092500", "113116.092500", "113118.092500", "113120.092500", "113122.092500", "113124.092500", "113126.092500", "113128.092500", "113130.092500", "113132.092500", "113134.092500", "113136.092500", "113138.092500", "113140.092500", "113142.092500", "113144.092500", "113146.092500", "113148.092500", "113150.092500", "113152.092500", "113154.092500", "113156.092500", "113158.092500", "113200.092500", "113202.092500", "113204.092500", "113206.092500", "113208.092500", "113210.092500", "113212.092500", "113214.092500", "113216.092500", "113218.092500", "113220.092500", "113222.092500", "113224.092500", "113226.092500", "113228.092500", "113230.092500", "113232.092500", "113234.092500", "113236.092500", "113238.092500", "113240.092500", "113242.092500", "113244.092500", "113246.092500", "113248.092500", "113250.092500", "113252.092500", "113254.092500", "113256.092500", "113258.092500", "113300.092500", "113302.092500", "113304.092500", "113306.092500", "113308.092500", "113310.092500", "113312.092500", "113314.092500", "113316.092500", "113318.092500", "113320.092500", "113322.092500", "113324.092500", "113326.092500", "113328.092500", "113330.092500", "113332.092500", "113334.092500", "113336.092500", "113338.092500", "113340.092500", "113342.092500", "113344.092500", "113346.092500", "113348.092500", "113350.092500", "113352.092500", "113354.092500", "113356.092500", "113358.092500", "113400.092500", "113402.092500", "113404.092500"],
      "ContentTime": ["112708.834000", "112708.838000", "112708.841000", "112708.844000", "112708.847000", "112708.850000", "112708.853000", "112708.856000", "112708.859000", "112708.862000", "112708.865000", "112708.868000", "112708.871000", "112708.874000", "112708.877000", "112708.880000", "112708.883000", "112708.886000", "112708.898000", "112708.901000", "112708.910000", "112708.913000", "112708.916000", "112708.919000", "112708.922000", "112708.925000", "112708.934000", "112708.937000", "112748.828000", "112748.832000", "112748.835000", "112748.838000", "112748.841000", "112748.844000", "112748.847000", "112748.850000", "112748.853000", "112748.863000", "112748.867000", "112748.871000", "112748.874000", "112748.878000", "112748.881000", "112748.884000", "112748.887000", "112748.890000", "112748.893000", "112748.896000", "112828.829000", "112828.832000", "112828.835000", "112828.838000", "112828.841000", "112828.844000", "112828.848000", "112828.851000", "112828.854000", "112828.857000", "112828.860000", "112828.863000", "112828.866000", "112828.869000", "112828.872000", "112828.875000", "112828.878000", "112828.881000", "112828.884000", "112828.887000", "112908.829000", "112908.832000", "112908.835000", "112908.838000", "112908.841000", "112908.844000", "112908.847000", "112908.850000", "112908.853000", "112908.856000", "112908.860000", "112908.863000", "112908.866000", "112908.869000", "112908.872000", "112908.876000", "112908.879000", "112908.882000", "112908.885000", "112908.888000", "112948.838000", "112948.841000", "112948.844000", "112948.847000", "112948.850000", "112948.853000", "112948.856000", "112948.859000", "112948.862000", "112948.865000", "112948.868000", "112948.871000", "112948.874000", "112948.877000", "112948.880000", "112948.883000", "112948.886000", "112948.889000", "112948.892000", "112948.895000", "113028.833000", "113028.836000", "113028.839000", "113028.842000", "113028.845000", "113028.849000", "113028.852000", "113028.855000", "113028.858000", "113028.861000", "113028.864000", "113028.868000", "113028.871000", "113028.874000", "113028.877000", "113028.880000", "113028.883000", "113028.886000", "113028.889000", "113028.892000", "113108.830000", "113108.834000", "113108.837000", "113108.840000", "113108.843000", "113108.846000", "113108.849000", "113108.852000", "113108.855000", "113108.858000", "113108.861000", "113108.864000", "113108.867000", "113108.870000", "113108.873000", "113108.876000", "113108.879000", "113108.882000", "113108.885000", "113108.889000", "113148.829000", "113148.832000", "113148.836000", "113148.839000", "113148.842000", "113148.845000", "113148.848000", "113148.851000", "113148.854000", "113148.857000", "113148.861000", "113148.864000", "113148.867000", "113148.870000", "113148.873000", "113148.876000", "113148.879000", "113148.882000", "113148.885000", "113148.888000", "113228.828000", "113228.831000", "113228.834000", "113228.838000", "113228.841000", "113228.844000", "113228.847000", "113228.850000", "113228.853000", "113228.857000", "113228.860000", "113228.863000", "113228.866000", "113228.869000", "113228.872000", "113228.876000", "113228.880000", "113228.883000", "113228.886000", "113228.889000", "113308.829000", "113308.832000", "113308.835000", "113308.839000", "113308.842000", "113308.845000", "113308.848000", "113308.851000", "113308.854000", "113308.857000", "113308.861000", "113308.864000", "113308.867000", "113308.870000", "113308.873000", "113308.876000", "113308.879000", "113308.883000", "113308.886000", "113308.889000", "113348.830000", "113348.834000", "113348.837000", "113348.840000", "113348.843000", "113348.847000", "113348.850000", "113348.861000", "113348.865000", "113348.868000", "113348.871000", "113348.874000", "113348.877000", "113348.880000", "113348.883000", "113348.886000", "113348.890000", "113348.893000", "113348.896000", "113348.899000", "113405.167000", "113405.170000", "113405.173000", "113405.176000", "113405.179000", "113405.182000", "113405.185000", "113405.189000", "113405.192000"],
      "InstanceCreationTime": ["112708.834000", "112708.838000", "112708.841000", "112708.844000", "112708.847000", "112708.850000", "112708.853000", "112708.856000", "112708.859000", "112708.862000", "112708.865000", "112708.868000", "112708.871000", "112708.874000", "112708.877000", "112708.880000", "112708.883000", "112708.886000", "112708.898000", "112708.901000", "112708.910000", "112708.913000", "112708.916000", "112708.919000", "112708.922000", "112708.925000", "112708.934000", "112708.937000", "112748.828000", "112748.832000", "112748.835000", "112748.838000", "112748.841000", "112748.844000", "112748.847000", "112748.850000", "112748.853000", "112748.863000", "112748.867000", "112748.871000", "112748.874000", "112748.878000", "112748.881000", "112748.884000", "112748.887000", "112748.890000", "112748.893000", "112748.896000", "112828.829000", "112828.832000", "112828.835000", "112828.838000", "112828.841000", "112828.844000", "112828.848000", "112828.851000", "112828.854000", "112828.857000", "112828.860000", "112828.863000", "112828.866000", "112828.869000", "112828.872000", "112828.875000", "112828.878000", "112828.881000", "112828.884000", "112828.887000", "112908.829000", "112908.832000", "112908.835000", "112908.838000", "112908.841000", "112908.844000", "112908.847000", "112908.850000", "112908.853000", "112908.856000", "112908.860000", "112908.863000", "112908.866000", "112908.869000", "112908.872000", "112908.876000", "112908.879000", "112908.882000", "112908.885000", "112908.888000", "112948.838000", "112948.841000", "112948.844000", "112948.847000", "112948.850000", "112948.853000", "112948.856000", "112948.859000", "112948.862000", "112948.865000", "112948.868000", "112948.871000", "112948.874000", "112948.877000", "112948.880000", "112948.883000", "112948.886000", "112948.889000", "112948.892000", "112948.895000", "113028.833000", "113028.836000", "113028.839000", "113028.842000", "113028.845000", "113028.849000", "113028.852000", "113028.855000", "113028.858000", "113028.861000", "113028.864000", "113028.868000", "113028.871000", "113028.874000", "113028.877000", "113028.880000", "113028.883000", "113028.886000", "113028.889000", "113028.892000", "113108.830000", "113108.834000", "113108.837000", "113108.840000", "113108.843000", "113108.846000", "113108.849000", "113108.852000", "113108.855000", "113108.858000", "113108.861000", "113108.864000", "113108.867000", "113108.870000", "113108.873000", "113108.876000", "113108.879000", "113108.882000", "113108.885000", "113108.889000", "113148.829000", "113148.832000", "113148.836000", "113148.839000", "113148.842000", "113148.845000", "113148.848000", "113148.851000", "113148.854000", "113148.857000", "113148.861000", "113148.864000", "113148.867000", "113148.870000", "113148.873000", "113148.876000", "113148.879000", "113148.882000", "113148.885000", "113148.888000", "113228.828000", "113228.831000", "113228.834000", "113228.838000", "113228.841000", "113228.844000", "113228.847000", "113228.850000", "113228.853000", "113228.857000", "113228.860000", "113228.863000", "113228.866000", "113228.869000", "113228.872000", "113228.876000", "113228.880000", "113228.883000", "113228.886000", "113228.889000", "113308.829000", "113308.832000", "113308.835000", "113308.839000", "113308.842000", "113308.845000", "113308.848000", "113308.851000", "113308.854000", "113308.857000", "113308.861000", "113308.864000", "113308.867000", "113308.870000", "113308.873000", "113308.876000", "113308.879000", "113308.883000", "113308.886000", "113308.889000", "113348.830000", "113348.834000", "113348.837000", "113348.840000", "113348.843000", "113348.847000", "113348.850000", "113348.861000", "113348.865000", "113348.868000", "113348.871000", "113348.874000", "113348.877000", "113348.880000", "113348.883000", "113348.886000", "113348.890000", "113348.893000", "113348.896000", "113348.899000", "113405.167000", "113405.170000", "113405.173000", "113405.176000", "113405.179000", "113405.182000", "113405.185000", "113405.189000", "113405.192000"],
      "InstanceNumber": [1, 2, 3, 4, 5, 6, 7, 8, 9, 10, 11, 12, 13, 14, 15, 16, 17, 18, 19, 20, 21, 22, 23, 24, 25, 26, 27, 28, 29, 30, 31, 32, 33, 34, 35, 36, 37, 38, 39, 40, 41, 42, 43, 44, 45, 46, 47, 48, 49, 50, 51, 52, 53, 54, 55, 56, 57, 58, 59, 60, 61, 62, 63, 64, 65, 66, 67, 68, 69, 70, 71, 72, 73, 74, 75, 76, 77, 78, 79, 80, 81, 82, 83, 84, 85, 86, 87, 88, 89, 90, 91, 92, 93, 94, 95, 96, 97, 98, 99, 100, 101, 102, 103, 104, 105, 106, 107, 108, 109, 110, 111, 112, 113, 114, 115, 116, 117, 118, 119, 120, 121, 122, 123, 124, 125, 126, 127, 128, 129, 130, 131, 132, 133, 134, 135, 136, 137, 138, 139, 140, 141, 142, 143, 144, 145, 146, 147, 148, 149, 150, 151, 152, 153, 154, 155, 156, 157, 158, 159, 160, 161, 162, 163, 164, 165, 166, 167, 168, 169, 170, 171, 172, 173, 174, 175, 176, 177, 178, 179, 180, 181, 182, 183, 184, 185, 186, 187, 188, 189, 190, 191, 192, 193, 194, 195, 196, 197, 198, 199, 200, 201, 202, 203, 204, 205, 206, 207, 208, 209, 210, 211, 212, 213, 214, 215, 216, 217, 218, 219, 220, 221, 222, 223, 224, 225, 226, 227, 228, 229, 230, 231, 232, 233, 234, 235, 236, 237],
      "LargestImagePixelValue": [2253, 1902, 2393, 2169, 1992, 2428, 2015, 2085, 2123, 1804, 2267, 1854, 2496, 1763, 2162, 2440, 1783, 2592, 1785, 1773, 2457, 1704, 2126, 2326, 1804, 2662, 1747, 2127, 2492, 1876, 2330, 1865, 2659, 1718, 2174, 2264, 1706, 2526, 1740, 1940, 2306, 1685, 2647, 1722, 2184, 2196, 1861, 2624, 1908, 1991, 2115, 1824, 2035, 1796, 2050, 2560, 1924, 2256, 2712, 1705, 2386, 2673, 1712, 2173, 2304, 1745, 2148, 1991, 1847, 2254, 1780, 2213, 1724, 2043, 2547, 1815, 2464, 1764, 1797, 2444, 1828, 2115, 1659, 2370, 2105, 1779, 2182, 1696, 2116, 2259, 1670, 2205, 1792, 2567, 2655, 1769, 2641, 2159, 1765, 2766, 1722, 1945, 1898, 1793, 2714, 1749, 1935, 2091, 1711, 2251, 1868, 2705, 1721, 2623, 2171, 1702, 2172, 2089, 1665, 1764, 2210, 2086, 1787, 2407, 2038, 2045, 2742, 1933, 1751, 2408, 1697, 2250, 1757, 2271, 1845, 1692, 2563, 1836, 2707, 2386, 1772, 2672, 1764, 1777, 1707, 2713, 1775, 2059, 2249, 1811, 2359, 1857, 2162, 1833, 2652, 1745, 2243, 2359, 1777, 2186, 2166, 1700, 2351, 1713, 2094, 2564, 1699, 2661, 2095, 1805, 2560, 1891, 1822, 2209, 2416, 1848, 1731, 2336, 1788, 2015, 2494, 1968, 1900, 2341, 1703, 2398, 2078, 1699, 2747, 2072, 1857, 2088, 1783, 2227, 2007, 1807, 1719, 2686, 2000, 1878, 2583, 1977, 2067, 1820, 2622, 2123, 1796, 1793, 1915, 2145, 1786, 2246, 2020, 1815, 2548, 2198, 1717, 2454, 1750, 1831, 2644, 1725, 2024, 2464, 1822, 2038, 2163, 1723, 2629, 1747, 1917, 2472, 2028, 1990, 1746, 2453, 2017],
      "WindowCenter": [701.0, 699.0, 700.0, 698.0, 698.0, 698.0, 697.0, 698.0, 698.0, 697.0, 698.0, 697.0, 699.0, 696.0, 697.0, 698.0, 696.0, 698.0, 696.0, 696.0, 698.0, 697.0, 697.0, 698.0, 696.0, 698.0, 697.0, 698.0, 698.0, 697.0, 697.0, 696.0, 698.0, 695.0, 697.0, 697.0, 695.0, 698.0, 696.0, 697.0, 698.0, 697.0, 699.0, 697.0, 698.0, 699.0, 697.0, 699.0, 697.0, 697.0, 698.0, 697.0, 698.0, 698.0, 699.0, 700.0, 698.0, 698.0, 699.0, 696.0, 697.0, 698.0, 695.0, 696.0, 697.0, 695.0, 697.0, 697.0, 696.0, 697.0, 696.0, 698.0, 697.0, 698.0, 699.0, 697.0, 698.0, 697.0, 696.0, 698.0, 696.0, 697.0, 696.0, 699.0, 698.0, 697.0, 698.0, 697.0, 698.0, 699.0, 697.0, 699.0, 698.0, 699.0, 699.0, 695.0, 697.0, 696.0, 695.0, 697.0, 695.0, 696.0, 696.0, 696.0, 698.0, 695.0, 696.0, 698.0, 697.0, 700.0, 698.0, 699.0, 696.0, 698.0, 697.0, 696.0, 697.0, 697.0, 695.0, 696.0, 698.0, 699.0, 698.0, 699.0, 699.0, 698.0, 699.0, 697.0, 696.0, 698.0, 697.0, 698.0, 697.0, 698.0, 698.0, 697.0, 700.0, 698.0, 699.0, 698.0, 696.0, 698.0, 696.0, 695.0, 696.0, 699.0, 696.0, 697.0, 697.0, 696.0, 698.0, 697.0, 697.0, 697.0, 698.0, 696.0, 697.0, 697.0, 696.0, 697.0, 697.0, 696.0, 699.0, 697.0, 699.0, 699.0, 696.0, 698.0, 697.0, 696.0, 698.0, 696.0, 696.0, 697.0, 698.0, 697.0, 697.0, 698.0, 697.0, 698.0, 699.0, 697.0, 698.0, 699.0, 697.0, 698.0, 698.0, 695.0, 698.0, 697.0, 697.0, 697.0, 696.0, 698.0, 697.0, 696.0, 697.0, 700.0, 698.0, 697.0, 698.0, 696.0, 697.0, 696.0, 698.0, 696.0, 695.0, 695.0, 696.0, 696.0, 696.0, 698.0, 697.0, 697.0, 698.0, 698.0, 697.0, 699.0, 697.0, 697.0, 699.0, 697.0, 697.0, 698.0, 696.0, 696.0, 698.0, 697.0, 699.0, 697.0, 697.0, 699.0, 698.0, 698.0, 698.0, 701.0, 700.0],
      "WindowWidth": [1544.0, 1539.0, 1542.0, 1536.0, 1535.0, 1536.0, 1533.0, 1535.0, 1534.0, 1531.0, 1537.0, 1533.0, 1538.0, 1529.0, 1532.0, 1535.0, 1529.0, 1535.0, 1528.0, 1529.0, 1537.0, 1530.0, 1534.0, 1537.0, 1531.0, 1538.0, 1531.0, 1534.0, 1536.0, 1530.0, 1533.0, 1529.0, 1536.0, 1526.0, 1530.0, 1533.0, 1527.0, 1536.0, 1529.0, 1532.0, 1537.0, 1530.0, 1540.0, 1531.0, 1536.0, 1536.0, 1532.0, 1538.0, 1531.0, 1533.0, 1534.0, 1533.0, 1534.0, 1535.0, 1538.0, 1541.0, 1535.0, 1534.0, 1539.0, 1529.0, 1533.0, 1535.0, 1526.0, 1529.0, 1531.0, 1525.0, 1532.0, 1531.0, 1528.0, 1534.0, 1530.0, 1535.0, 1530.0, 1534.0, 1539.0, 1531.0, 1535.0, 1530.0, 1530.0, 1535.0, 1530.0, 1533.0, 1529.0, 1537.0, 1536.0, 1532.0, 1536.0, 1533.0, 1535.0, 1538.0, 1533.0, 1540.0, 1535.0, 1539.0, 1537.0, 1527.0, 1533.0, 1529.0, 1525.0, 1534.0, 1526.0, 1529.0, 1530.0, 1529.0, 1536.0, 1527.0, 1529.0, 1534.0, 1532.0, 1542.0, 1534.0, 1540.0, 1530.0, 1535.0, 1533.0, 1527.0, 1532.0, 1532.0, 1527.0, 1529.0, 1534.0, 1537.0, 1534.0, 1540.0, 1539.0, 1535.0, 1539.0, 1531.0, 1528.0, 1535.0, 1530.0, 1534.0, 1530.0, 1536.0, 1535.0, 1532.0, 1541.0, 1535.0, 1539.0, 1534.0, 1527.0, 1535.0, 1528.0, 1527.0, 1528.0, 1539.0, 1529.0, 1531.0, 1533.0, 1529.0, 1534.0, 1530.0, 1534.0, 1531.0, 1538.0, 1529.0, 1532.0, 1533.0, 1528.0, 1532.0, 1533.0, 1528.0, 1537.0, 1532.0, 1537.0, 1540.0, 1530.0, 1536.0, 1532.0, 1527.0, 1534.0, 1529.0, 1529.0, 1533.0, 1535.0, 1531.0, 1530.0, 1536.0, 1532.0, 1535.0, 1539.0, 1533.0, 1533.0, 1538.0, 1532.0, 1536.0, 1533.0, 1527.0, 1536.0, 1531.0, 1531.0, 1533.0, 1529.0, 1533.0, 1531.0, 1530.0, 1534.0, 1542.0, 1535.0, 1532.0, 1535.0, 1529.0, 1532.0, 1529.0, 1534.0, 1530.0, 1525.0, 1526.0, 1528.0, 1529.0, 1529.0, 1535.0, 1533.0, 1532.0, 1537.0, 1535.0, 1531.0, 1538.0, 1531.0, 1532.0, 1539.0, 1532.0, 1533.0, 1535.0, 1530.0, 1531.0, 1535.0, 1530.0, 1540.0, 1532.0, 1532.0, 1537.0, 1535.0, 1536.0, 1536.0, 1545.0, 1540.0]
    },
    "slices": {}
  }
}