{
  "AcquisitionMatrixPE": 70,
  "AcquisitionNumber": 1,
  "AcquisitionTime": "11:34:53.552500",
  "BandwidthPerPixelPhaseEncode": 38.873,
  "BaseResolution": 70,
  "BodyPartExamined": "HEAD",
  "ConsistencyInfo": "N4_VE11B_LATEST_20150530",
  "ConversionSoftware": "dcm2niix",
  "ConversionSoftwareVersion": "v1.0.20190410  GCC6.3.0",
  "DerivedVendorReportedEchoSpacing": 0.000489996,
  "DeviceSerialNumber": "66088",
  "DwellTime": 2.9e-06,
  "EchoTime": 0.03,
  "EchoTrainLength": 53,
  "EffectiveEchoSpacing": 0.000367497,
  "FlipAngle": 90,
  "ImageOrientationPatientDICOM": [0.999372, -0.0239625, -0.026089, 0.00872134, 0.880253, -0.474424],
  "ImageType": [
    "ORIGINAL",
    "PRIMARY",
    "M",
    "ND",
    "NORM",
    "MOSAIC"
],
  "ImagingFrequency": 123.191,
  "InPlanePhaseEncodingDirectionDICOM": "COL",
  "InstitutionAddress": "Street_StreetNo_City_District_IR_ZIP",
  "InstitutionName": "NBML",
  "InstitutionalDepartmentName": "Department",
  "MRAcquisitionType": "2D",
  "MagneticFieldStrength": 3,
  "Manufacturer": "Siemens",
  "ManufacturersModelName": "Prisma",
  "Modality": "MR",
  "ParallelReductionFactorInPlane": 2,
  "PartialFourier": 1,
  "PatientPosition": "HFS",
  "PercentPhaseFOV": 100,
  "PhaseEncodingDirection": "j-",
  "PhaseEncodingSteps": 105,
  "PhaseOversampling": 0.5,
  "PhaseResolution": 1,
  "PixelBandwidth": 2465,
  "ProcedureStepDescription": "NBML_Project_P-96169-Ebrahiminiya",
  "ProtocolName": "ep2d_p2_Task_3.5_measurment:237",
  "PulseSequenceDetails": "%SiemensSeq%_ep2d_pace",
  "ReceiveCoilActiveElements": "HC1-7;NC1",
  "ReceiveCoilName": "HeadNeck_64",
  "ReconMatrixPE": 70,
  "RefLinesPE": 24,
  "RepetitionTime": 2,
  "SAR": 0.0877137,
  "ScanOptions": "FS",
  "ScanningSequence": "EP",
  "SequenceName": "_epfid2d1_70",
  "SequenceVariant": "SK_OSP",
  "SeriesDescription": "ep2d_p2_Task_3.5_measurment:237",
  "SeriesNumber": 8,
  "ShimSetting": [2592, -4416, -3267, 350, 4, 92, 1, 26],
  "SliceThickness": 3.5,
  "SliceTiming": [0.99, 0, 1.0475, 0.0575, 1.1075, 0.1175, 1.165, 0.175, 1.2225, 0.2325, 1.2825, 0.2925, 1.34, 0.35, 1.3975, 0.4075, 1.455, 0.4675, 1.515, 0.525, 1.5725, 0.5825, 1.63, 0.64, 1.69, 0.7, 1.7475, 0.7575, 1.805, 0.815, 1.865, 0.875, 1.9225, 0.9325],
  "SoftwareVersions": "syngo_MR_E11",
  "SpacingBetweenSlices": 3.85,
  "StationName": "AWP66088",
  "TaskName": "categorySelectivity",
  "TotalReadoutTime": 0.0253573,
  "TxRefAmp": 245.08,
  "dcmmeta_affine": [
    [-3.5406336784362793, 0.0308984462171793, -0.13218334317207336, 126.00667572021484],
    [0.08489586412906647, 3.1186118125915527, -1.8245092630386353, -80.24187469482422],
    [-0.09242962300777435, 1.6808158159255981, 3.38765287399292, -91.57656860351562],
    [0.0, 0.0, 0.0, 1.0]
],
  "dcmmeta_reorient_transform": [
    [0.0, -1.0, 0.0, 69.0],
    [1.0, 0.0, 0.0, 0.0],
    [0.0, 0.0, 1.0, 0.0],
    [0.0, 0.0, 0.0, 1.0]
],
  "dcmmeta_shape": [70, 70, 34, 237],
  "dcmmeta_slice_dim": 2,
  "dcmmeta_version": 0.6,
  "global": {
    "const": {
      "AccessionNumber": "M.BRZ",
      "AcquisitionMatrix": [70, 0, 0, 70],
      "AngioFlag": "N",
      "BitsAllocated": 16,
      "BitsStored": 12,
      "BodyPartExamined": "HEAD",
      "Columns": 420,
      "EchoNumbers": 1,
      "EchoTime": 30.0,
      "EchoTrainLength": 53,
      "FlipAngle": 90.0,
      "HighBit": 11,
      "ImageOrientationPatient": [0.99937238321893, -0.0239625416044, -0.0260890064812, 0.00872133538138, 0.88025336090612, -0.4744238178282],
      "ImagePositionPatient": [-753.15677674331, -665.84265969278, 334.71767619968],
      "ImageType": [
        "ORIGINAL",
        "PRIMARY",
        "M",
        "ND",
        "NORM",
        "MOSAIC"
],
      "ImagedNucleus": "1H",
      "ImagingFrequency": 123.191151,
      "InPlanePhaseEncodingDirection": "COL",
      "MRAcquisitionType": "2D",
      "MagneticFieldStrength": 3.0,
      "Manufacturer": "SIEMENS",
      "ManufacturerModelName": "Prisma",
      "Modality": "MR",
      "NumberOfAverages": 1.0,
      "NumberOfPhaseEncodingSteps": 105,
      "PercentPhaseFieldOfView": 100.0,
      "PercentSampling": 100.0,
      "PerformedProcedureStepStartTime": "104422.814000",
      "PhotometricInterpretation": "MONOCHROME2",
      "PixelBandwidth": 2465.0,
      "PixelRepresentation": 0,
      "PixelSpacing": [3.542857170105, 3.542857170105],
      "ProtocolName": "ep2d_p2_Task_3.5_measurment:237",
      "RepetitionTime": 2000.0,
      "Rows": 420,
      "SAR": 0.08771370424282,
      "SamplesPerPixel": 1,
      "ScanOptions": "FS",
      "ScanningSequence": "EP",
      "SequenceName": "*epfid2d1_70",
      "SequenceVariant": [
        "SK",
        "OSP"
],
      "SeriesDescription": "ep2d_p2_Task_3.5_measurment:237",
      "SeriesNumber": 8,
      "SeriesTime": "113500.294000",
      "SliceLocation": -46.878850934155,
      "SliceThickness": 3.5,
      "SmallestImagePixelValue": 0,
      "SoftwareVersions": "syngo MR E11",
      "SpacingBetweenSlices": 3.8499998368259,
      "SpecificCharacterSet": "ISO_IR 100",
      "StudyID": "1",
      "StudyTime": "104422.743000",
      "TransmitCoilName": "Body",
      "VariableFlipAngleFlag": "N",
      "WindowCenterWidthExplanation": "Algo1",
      "dBdt": 0.0},
    "slices": {}
  },
  "time": {
    "samples": {
      "AcquisitionNumber": [1, 2, 3, 4, 5, 6, 7, 8, 9, 10, 11, 12, 13, 14, 15, 16, 17, 18, 19, 20, 21, 22, 23, 24, 25, 26, 27, 28, 29, 30, 31, 32, 33, 34, 35, 36, 37, 38, 39, 40, 41, 42, 43, 44, 45, 46, 47, 48, 49, 50, 51, 52, 53, 54, 55, 56, 57, 58, 59, 60, 61, 62, 63, 64, 65, 66, 67, 68, 69, 70, 71, 72, 73, 74, 75, 76, 77, 78, 79, 80, 81, 82, 83, 84, 85, 86, 87, 88, 89, 90, 91, 92, 93, 94, 95, 96, 97, 98, 99, 100, 101, 102, 103, 104, 105, 106, 107, 108, 109, 110, 111, 112, 113, 114, 115, 116, 117, 118, 119, 120, 121, 122, 123, 124, 125, 126, 127, 128, 129, 130, 131, 132, 133, 134, 135, 136, 137, 138, 139, 140, 141, 142, 143, 144, 145, 146, 147, 148, 149, 150, 151, 152, 153, 154, 155, 156, 157, 158, 159, 160, 161, 162, 163, 164, 165, 166, 167, 168, 169, 170, 171, 172, 173, 174, 175, 176, 177, 178, 179, 180, 181, 182, 183, 184, 185, 186, 187, 188, 189, 190, 191, 192, 193, 194, 195, 196, 197, 198, 199, 200, 201, 202, 203, 204, 205, 206, 207, 208, 209, 210, 211, 212, 213, 214, 215, 216, 217, 218, 219, 220, 221, 222, 223, 224, 225, 226, 227, 228, 229, 230, 231, 232, 233, 234, 235, 236, 237],
      "AcquisitionTime": ["113453.552500", "113455.552500", "113457.552500", "113459.552500", "113501.552500", "113503.552500", "113505.552500", "113507.552500", "113509.552500", "113511.552500", "113513.552500", "113515.552500", "113517.552500", "113519.552500", "113521.552500", "113523.552500", "113525.552500", "113527.552500", "113529.552500", "113531.552500", "113533.552500", "113535.552500", "113537.552500", "113539.552500", "113541.552500", "113543.552500", "113545.552500", "113547.552500", "113549.552500", "113551.552500", "113553.552500", "113555.552500", "113557.552500", "113559.552500", "113601.552500", "113603.552500", "113605.552500", "113607.552500", "113609.552500", "113611.552500", "113613.552500", "113615.552500", "113617.552500", "113619.552500", "113621.552500", "113623.552500", "113625.552500", "113627.552500", "113629.552500", "113631.552500", "113633.552500", "113635.552500", "113637.552500", "113639.552500", "113641.552500", "113643.552500", "113645.552500", "113647.552500", "113649.552500", "113651.552500", "113653.552500", "113655.552500", "113657.552500", "113659.552500", "113701.552500", "113703.552500", "113705.552500", "113707.552500", "113709.552500", "113711.552500", "113713.552500", "113715.552500", "113717.552500", "113719.552500", "113721.552500", "113723.552500", "113725.552500", "113727.552500", "113729.552500", "113731.552500", "113733.552500", "113735.552500", "113737.552500", "113739.552500", "113741.552500", "113743.552500", "113745.552500", "113747.552500", "113749.552500", "113751.552500", "113753.552500", "113755.552500", "113757.552500", "113759.552500", "113801.552500", "113803.552500", "113805.552500", "113807.552500", "113809.552500", "113811.552500", "113813.552500", "113815.552500", "113817.552500", "113819.552500", "113821.552500", "113823.552500", "113825.552500", "113827.552500", "113829.552500", "113831.552500", "113833.552500", "113835.552500", "113837.552500", "113839.552500", "113841.552500", "113843.552500", "113845.552500", "113847.552500", "113849.552500", "113851.552500", "113853.552500", "113855.552500", "113857.552500", "113859.552500", "113901.552500", "113903.552500", "113905.552500", "113907.552500", "113909.552500", "113911.552500", "113913.552500", "113915.552500", "113917.552500", "113919.552500", "113921.552500", "113923.552500", "113925.552500", "113927.552500", "113929.552500", "113931.552500", "113933.552500", "113935.552500", "113937.552500", "113939.552500", "113941.552500", "113943.552500", "113945.552500", "113947.552500", "113949.552500", "113951.552500", "113953.552500", "113955.552500", "113957.552500", "113959.552500", "114001.552500", "114003.552500", "114005.552500", "114007.552500", "114009.552500", "114011.552500", "114013.552500", "114015.552500", "114017.552500", "114019.552500", "114021.552500", "114023.552500", "114025.552500", "114027.552500", "114029.552500", "114031.552500", "114033.552500", "114035.552500", "114037.552500", "114039.552500", "114041.552500", "114043.552500", "114045.552500", "114047.552500", "114049.552500", "114051.552500", "114053.552500", "114055.552500", "114057.552500", "114059.552500", "114101.552500", "114103.552500", "114105.552500", "114107.552500", "114109.552500", "114111.552500", "114113.552500", "114115.552500", "114117.552500", "114119.552500", "114121.552500", "114123.552500", "114125.552500", "114127.552500", "114129.552500", "114131.552500", "114133.552500", "114135.552500", "114137.552500", "114139.552500", "114141.552500", "114143.552500", "114145.552500", "114147.552500", "114149.552500", "114151.552500", "114153.552500", "114155.552500", "114157.552500", "114159.552500", "114201.552500", "114203.552500", "114205.552500", "114207.552500", "114209.552500", "114211.552500", "114213.552500", "114215.552500", "114217.552500", "114219.552500", "114221.552500", "114223.552500", "114225.552500", "114227.552500", "114229.552500", "114231.552500", "114233.552500", "114235.552500", "114237.552500", "114239.552500", "114241.552500", "114243.552500", "114245.552500"],
      "ContentTime": ["113500.298000", "113500.301000", "113500.304000", "113540.293000", "113540.297000", "113540.300000", "113540.303000", "113540.306000", "113540.309000", "113540.312000", "113540.316000", "113540.319000", "113540.322000", "113540.325000", "113540.328000", "113540.331000", "113540.334000", "113540.341000", "113540.344000", "113540.348000", "113540.351000", "113540.354000", "113540.357000", "113620.296000", "113620.300000", "113620.303000", "113620.306000", "113620.309000", "113620.312000", "113620.315000", "113620.318000", "113620.321000", "113620.324000", "113620.327000", "113620.330000", "113620.333000", "113620.336000", "113620.339000", "113620.342000", "113620.345000", "113620.348000", "113620.351000", "113620.362000", "113700.293000", "113700.296000", "113700.298000", "113700.301000", "113700.303000", "113700.306000", "113700.308000", "113700.311000", "113700.313000", "113700.316000", "113700.319000", "113700.321000", "113700.324000", "113700.326000", "113700.329000", "113700.331000", "113700.334000", "113700.336000", "113700.339000", "113700.341000", "113740.293000", "113740.296000", "113740.299000", "113740.302000", "113740.305000", "113740.308000", "113740.311000", "113740.314000", "113740.317000", "113740.320000", "113740.323000", "113740.326000", "113740.329000", "113740.332000", "113740.335000", "113740.338000", "113740.341000", "113740.344000", "113740.348000", "113740.351000", "113820.293000", "113820.295000", "113820.298000", "113820.300000", "113820.303000", "113820.305000", "113820.307000", "113820.310000", "113820.312000", "113820.314000", "113820.317000", "113820.319000", "113820.322000", "113820.324000", "113820.327000", "113820.329000", "113820.332000", "113820.334000", "113820.337000", "113820.339000", "113900.292000", "113900.295000", "113900.297000", "113900.300000", "113900.302000", "113900.304000", "113900.307000", "113900.309000", "113900.311000", "113900.314000", "113900.316000", "113900.318000", "113900.321000", "113900.323000", "113900.326000", "113900.328000", "113900.330000", "113900.333000", "113900.335000", "113900.337000", "113940.294000", "113940.297000", "113940.300000", "113940.303000", "113940.306000", "113940.309000", "113940.312000", "113940.315000", "113940.318000", "113940.321000", "113940.325000", "113940.328000", "113940.331000", "113940.334000", "113940.337000", "113940.340000", "113940.343000", "113940.346000", "113940.349000", "113940.352000", "114020.296000", "114020.299000", "114020.302000", "114020.305000", "114020.308000", "114020.311000", "114020.314000", "114020.317000", "114020.320000", "114020.324000", "114020.327000", "114020.330000", "114020.333000", "114020.336000", "114020.349000", "114020.352000", "114020.355000", "114020.358000", "114020.361000", "114020.364000", "114100.294000", "114100.297000", "114100.299000", "114100.302000", "114100.304000", "114100.307000", "114100.309000", "114100.311000", "114100.314000", "114100.316000", "114100.318000", "114100.321000", "114100.323000", "114100.333000", "114100.335000", "114100.338000", "114100.340000", "114100.342000", "114100.345000", "114100.347000", "114140.293000", "114140.296000", "114140.299000", "114140.302000", "114140.305000", "114140.309000", "114140.312000", "114140.315000", "114140.318000", "114140.321000", "114140.324000", "114140.327000", "114140.330000", "114140.333000", "114140.336000", "114140.339000", "114140.342000", "114140.345000", "114140.348000", "114140.351000", "114220.292000", "114220.295000", "114220.298000", "114220.300000", "114220.302000", "114220.305000", "114220.307000", "114220.309000", "114220.312000", "114220.314000", "114220.316000", "114220.319000", "114220.321000", "114220.324000", "114220.326000", "114220.328000", "114220.331000", "114220.333000", "114220.335000", "114220.338000", "114247.072000", "114247.075000", "114247.078000", "114247.081000", "114247.084000", "114247.087000", "114247.090000", "114247.093000", "114247.096000", "114247.099000", "114247.102000", "114247.105000", "114247.109000", "114247.112000"],
      "InstanceCreationTime": ["113500.298000", "113500.301000", "113500.304000", "113540.293000", "113540.297000", "113540.300000", "113540.303000", "113540.306000", "113540.309000", "113540.312000", "113540.316000", "113540.319000", "113540.322000", "113540.325000", "113540.328000", "113540.331000", "113540.334000", "113540.341000", "113540.344000", "113540.348000", "113540.351000", "113540.354000", "113540.357000", "113620.296000", "113620.300000", "113620.303000", "113620.306000", "113620.309000", "113620.312000", "113620.315000", "113620.318000", "113620.321000", "113620.324000", "113620.327000", "113620.330000", "113620.333000", "113620.336000", "113620.339000", "113620.342000", "113620.345000", "113620.348000", "113620.351000", "113620.362000", "113700.293000", "113700.296000", "113700.298000", "113700.301000", "113700.303000", "113700.306000", "113700.308000", "113700.311000", "113700.313000", "113700.316000", "113700.319000", "113700.321000", "113700.324000", "113700.326000", "113700.329000", "113700.331000", "113700.334000", "113700.336000", "113700.339000", "113700.341000", "113740.293000", "113740.296000", "113740.299000", "113740.302000", "113740.305000", "113740.308000", "113740.311000", "113740.314000", "113740.317000", "113740.320000", "113740.323000", "113740.326000", "113740.329000", "113740.332000", "113740.335000", "113740.338000", "113740.341000", "113740.344000", "113740.348000", "113740.351000", "113820.293000", "113820.295000", "113820.298000", "113820.300000", "113820.303000", "113820.305000", "113820.307000", "113820.310000", "113820.312000", "113820.314000", "113820.317000", "113820.319000", "113820.322000", "113820.324000", "113820.327000", "113820.329000", "113820.332000", "113820.334000", "113820.337000", "113820.339000", "113900.292000", "113900.295000", "113900.297000", "113900.300000", "113900.302000", "113900.304000", "113900.307000", "113900.309000", "113900.311000", "113900.314000", "113900.316000", "113900.318000", "113900.321000", "113900.323000", "113900.326000", "113900.328000", "113900.330000", "113900.333000", "113900.335000", "113900.337000", "113940.294000", "113940.297000", "113940.300000", "113940.303000", "113940.306000", "113940.309000", "113940.312000", "113940.315000", "113940.318000", "113940.321000", "113940.325000", "113940.328000", "113940.331000", "113940.334000", "113940.337000", "113940.340000", "113940.343000", "113940.346000", "113940.349000", "113940.352000", "114020.296000", "114020.299000", "114020.302000", "114020.305000", "114020.308000", "114020.311000", "114020.314000", "114020.317000", "114020.320000", "114020.324000", "114020.327000", "114020.330000", "114020.333000", "114020.336000", "114020.349000", "114020.352000", "114020.355000", "114020.358000", "114020.361000", "114020.364000", "114100.294000", "114100.297000", "114100.299000", "114100.302000", "114100.304000", "114100.307000", "114100.309000", "114100.311000", "114100.314000", "114100.316000", "114100.318000", "114100.321000", "114100.323000", "114100.333000", "114100.335000", "114100.338000", "114100.340000", "114100.342000", "114100.345000", "114100.347000", "114140.293000", "114140.296000", "114140.299000", "114140.302000", "114140.305000", "114140.309000", "114140.312000", "114140.315000", "114140.318000", "114140.321000", "114140.324000", "114140.327000", "114140.330000", "114140.333000", "114140.336000", "114140.339000", "114140.342000", "114140.345000", "114140.348000", "114140.351000", "114220.292000", "114220.295000", "114220.298000", "114220.300000", "114220.302000", "114220.305000", "114220.307000", "114220.309000", "114220.312000", "114220.314000", "114220.316000", "114220.319000", "114220.321000", "114220.324000", "114220.326000", "114220.328000", "114220.331000", "114220.333000", "114220.335000", "114220.338000", "114247.072000", "114247.075000", "114247.078000", "114247.081000", "114247.084000", "114247.087000", "114247.090000", "114247.093000", "114247.096000", "114247.099000", "114247.102000", "114247.105000", "114247.109000", "114247.112000"],
      "InstanceNumber": [1, 2, 3, 4, 5, 6, 7, 8, 9, 10, 11, 12, 13, 14, 15, 16, 17, 18, 19, 20, 21, 22, 23, 24, 25, 26, 27, 28, 29, 30, 31, 32, 33, 34, 35, 36, 37, 38, 39, 40, 41, 42, 43, 44, 45, 46, 47, 48, 49, 50, 51, 52, 53, 54, 55, 56, 57, 58, 59, 60, 61, 62, 63, 64, 65, 66, 67, 68, 69, 70, 71, 72, 73, 74, 75, 76, 77, 78, 79, 80, 81, 82, 83, 84, 85, 86, 87, 88, 89, 90, 91, 92, 93, 94, 95, 96, 97, 98, 99, 100, 101, 102, 103, 104, 105, 106, 107, 108, 109, 110, 111, 112, 113, 114, 115, 116, 117, 118, 119, 120, 121, 122, 123, 124, 125, 126, 127, 128, 129, 130, 131, 132, 133, 134, 135, 136, 137, 138, 139, 140, 141, 142, 143, 144, 145, 146, 147, 148, 149, 150, 151, 152, 153, 154, 155, 156, 157, 158, 159, 160, 161, 162, 163, 164, 165, 166, 167, 168, 169, 170, 171, 172, 173, 174, 175, 176, 177, 178, 179, 180, 181, 182, 183, 184, 185, 186, 187, 188, 189, 190, 191, 192, 193, 194, 195, 196, 197, 198, 199, 200, 201, 202, 203, 204, 205, 206, 207, 208, 209, 210, 211, 212, 213, 214, 215, 216, 217, 218, 219, 220, 221, 222, 223, 224, 225, 226, 227, 228, 229, 230, 231, 232, 233, 234, 235, 236, 237],
      "LargestImagePixelValue": [1938, 1794, 1893, 2498, 2935, 2964, 1710, 2673, 1771, 1810, 2326, 1987, 2063, 2798, 1792, 1757, 2284, 2109, 1667, 2171, 2357, 1893, 1849, 2243, 1834, 2270, 1717, 2314, 2238, 1822, 2414, 2229, 1805, 2277, 1741, 2071, 2289, 1774, 2284, 1723, 2034, 1909, 2315, 2283, 1804, 1872, 1922, 1845, 1962, 1944, 2022, 2191, 2085, 1928, 2170, 1986, 2111, 2156, 1884, 2070, 2222, 2273, 1730, 2180, 2364, 1723, 2279, 2301, 1739, 2249, 2359, 1737, 2187, 2196, 1775, 2711, 1990, 1816, 2524, 1947, 1778, 2650, 2093, 1721, 2195, 1865, 1778, 2776, 1815, 1872, 2743, 1776, 1736, 2355, 1754, 1692, 2106, 2544, 1859, 1943, 2129, 1959, 1820, 2052, 2236, 1876, 1832, 2726, 1808, 1798, 2538, 2016, 1769, 2558, 1760, 1726, 2314, 1844, 1639, 1735, 2121, 1822, 2755, 1768, 2646, 1700, 2614, 2358, 1716, 1903, 1992, 2145, 1907, 1802, 2216, 1877, 1728, 2201, 2344, 1688, 2225, 2536, 2318, 1731, 1691, 2300, 2456, 1707, 1920, 2063, 2046, 1700, 1774, 2248, 2219, 1736, 1971, 2474, 2676, 1838, 1820, 1696, 1952, 2849, 1817, 1721, 1850, 2184, 1729, 1980, 2119, 2143, 1791, 1882, 2017, 2496, 1774, 1731, 1883, 2191, 2074, 1840, 1728, 2601, 2290, 1693, 2160, 1810, 2038, 1814, 1741, 2402, 2338, 1762, 1719, 1723, 2299, 1863, 1781, 2841, 2211, 2136, 1885, 1748, 1701, 2361, 2193, 2209, 1931, 1742, 1690, 2284, 2306, 1663, 2100, 2337, 1663, 1808, 2652, 1705, 1886, 1859, 2823, 1797, 1703, 2031, 2277, 1719, 2071, 1908, 1828, 1830, 1780, 2502, 1891, 1884, 2009],
      "WindowCenter": [698.0, 699.0, 700.0, 699.0, 697.0, 698.0, 695.0, 698.0, 696.0, 696.0, 698.0, 698.0, 698.0, 699.0, 696.0, 696.0, 697.0, 697.0, 696.0, 698.0, 698.0, 697.0, 697.0, 697.0, 698.0, 699.0, 698.0, 698.0, 698.0, 696.0, 698.0, 697.0, 696.0, 697.0, 696.0, 697.0, 697.0, 696.0, 698.0, 696.0, 699.0, 697.0, 698.0, 698.0, 696.0, 696.0, 697.0, 697.0, 697.0, 697.0, 697.0, 698.0, 698.0, 697.0, 698.0, 697.0, 698.0, 698.0, 696.0, 698.0, 698.0, 698.0, 697.0, 698.0, 699.0, 696.0, 699.0, 698.0, 696.0, 698.0, 698.0, 696.0, 698.0, 699.0, 697.0, 699.0, 697.0, 697.0, 699.0, 697.0, 696.0, 698.0, 697.0, 695.0, 697.0, 698.0, 696.0, 699.0, 697.0, 697.0, 698.0, 696.0, 696.0, 698.0, 696.0, 697.0, 698.0, 699.0, 696.0, 697.0, 697.0, 697.0, 696.0, 697.0, 698.0, 697.0, 697.0, 698.0, 697.0, 697.0, 699.0, 697.0, 697.0, 699.0, 696.0, 696.0, 696.0, 696.0, 697.0, 698.0, 698.0, 697.0, 699.0, 697.0, 699.0, 697.0, 698.0, 697.0, 695.0, 695.0, 696.0, 697.0, 696.0, 696.0, 698.0, 697.0, 696.0, 698.0, 698.0, 696.0, 699.0, 699.0, 697.0, 696.0, 696.0, 697.0, 698.0, 696.0, 697.0, 698.0, 698.0, 697.0, 698.0, 699.0, 699.0, 699.0, 699.0, 699.0, 699.0, 696.0, 697.0, 697.0, 698.0, 698.0, 695.0, 695.0, 695.0, 697.0, 696.0, 697.0, 698.0, 697.0, 696.0, 696.0, 696.0, 697.0, 696.0, 695.0, 696.0, 698.0, 698.0, 696.0, 696.0, 699.0, 698.0, 696.0, 697.0, 696.0, 697.0, 697.0, 696.0, 699.0, 699.0, 696.0, 696.0, 697.0, 699.0, 698.0, 697.0, 699.0, 698.0, 697.0, 695.0, 695.0, 696.0, 698.0, 698.0, 697.0, 697.0, 696.0, 697.0, 699.0, 699.0, 696.0, 697.0, 698.0, 696.0, 696.0, 698.0, 695.0, 696.0, 696.0, 697.0, 695.0, 694.0, 696.0, 697.0, 694.0, 696.0, 695.0, 696.0, 697.0, 696.0, 698.0, 697.0, 697.0, 698.0],
      "WindowWidth": [1534.0, 1537.0, 1541.0, 1538.0, 1534.0, 1534.0, 1525.0, 1535.0, 1529.0, 1530.0, 1536.0, 1535.0, 1535.0, 1540.0, 1530.0, 1529.0, 1533.0, 1533.0, 1529.0, 1535.0, 1537.0, 1532.0, 1532.0, 1534.0, 1533.0, 1538.0, 1533.0, 1537.0, 1536.0, 1530.0, 1535.0, 1533.0, 1528.0, 1532.0, 1528.0, 1531.0, 1532.0, 1528.0, 1534.0, 1529.0, 1538.0, 1533.0, 1536.0, 1534.0, 1528.0, 1529.0, 1531.0, 1531.0, 1533.0, 1533.0, 1533.0, 1536.0, 1534.0, 1533.0, 1534.0, 1532.0, 1533.0, 1534.0, 1530.0, 1534.0, 1535.0, 1535.0, 1530.0, 1535.0, 1537.0, 1531.0, 1537.0, 1536.0, 1530.0, 1534.0, 1535.0, 1530.0, 1535.0, 1537.0, 1532.0, 1539.0, 1533.0, 1531.0, 1537.0, 1531.0, 1529.0, 1537.0, 1531.0, 1526.0, 1533.0, 1533.0, 1530.0, 1539.0, 1532.0, 1531.0, 1537.0, 1529.0, 1529.0, 1534.0, 1528.0, 1531.0, 1536.0, 1538.0, 1530.0, 1530.0, 1531.0, 1531.0, 1530.0, 1532.0, 1535.0, 1532.0, 1531.0, 1536.0, 1531.0, 1531.0, 1539.0, 1533.0, 1531.0, 1538.0, 1528.0, 1528.0, 1531.0, 1529.0, 1531.0, 1534.0, 1535.0, 1531.0, 1538.0, 1532.0, 1540.0, 1530.0, 1535.0, 1532.0, 1525.0, 1527.0, 1529.0, 1532.0, 1530.0, 1530.0, 1534.0, 1531.0, 1529.0, 1535.0, 1536.0, 1530.0, 1537.0, 1538.0, 1533.0, 1528.0, 1528.0, 1533.0, 1536.0, 1530.0, 1532.0, 1535.0, 1534.0, 1533.0, 1534.0, 1538.0, 1538.0, 1536.0, 1539.0, 1538.0, 1539.0, 1530.0, 1531.0, 1532.0, 1533.0, 1536.0, 1527.0, 1525.0, 1527.0, 1533.0, 1528.0, 1533.0, 1533.0, 1532.0, 1529.0, 1527.0, 1528.0, 1533.0, 1527.0, 1526.0, 1531.0, 1537.0, 1535.0, 1530.0, 1528.0, 1537.0, 1535.0, 1528.0, 1532.0, 1529.0, 1532.0, 1531.0, 1530.0, 1537.0, 1537.0, 1528.0, 1529.0, 1531.0, 1537.0, 1535.0, 1532.0, 1539.0, 1534.0, 1531.0, 1526.0, 1526.0, 1528.0, 1536.0, 1535.0, 1531.0, 1532.0, 1528.0, 1531.0, 1537.0, 1537.0, 1528.0, 1532.0, 1535.0, 1528.0, 1529.0, 1535.0, 1526.0, 1528.0, 1527.0, 1534.0, 1525.0, 1524.0, 1528.0, 1531.0, 1524.0, 1528.0, 1526.0, 1530.0, 1531.0, 1529.0, 1535.0, 1531.0, 1532.0, 1534.0]
    },
    "slices": {}
  }
}