{
  "AcquisitionMatrixPE": 70,
  "AcquisitionNumber": 1,
  "AcquisitionTime": "11:03:26.807500",
  "BandwidthPerPixelPhaseEncode": 38.873,
  "BaseResolution": 70,
  "BodyPartExamined": "HEAD",
  "ConsistencyInfo": "N4_VE11B_LATEST_20150530",
  "ConversionSoftware": "dcm2niix",
  "ConversionSoftwareVersion": "v1.0.20190410  GCC6.3.0",
  "DerivedVendorReportedEchoSpacing": 0.000489996,
  "DeviceSerialNumber": "66088",
  "DwellTime": 2.9e-06,
  "EchoTime": 0.03,
  "EchoTrainLength": 53,
  "EffectiveEchoSpacing": 0.000367497,
  "FlipAngle": 90,
  "ImageOrientationPatientDICOM": [0.997123, 0.0266479, 0.0709666, 0.00870171, 0.88975, -0.456365],
  "ImageType": [
    "ORIGINAL",
    "PRIMARY",
    "M",
    "ND",
    "NORM",
    "MOSAIC"
],
  "ImagingFrequency": 123.191,
  "InPlanePhaseEncodingDirectionDICOM": "COL",
  "InstitutionAddress": "Street_StreetNo_City_District_IR_ZIP",
  "InstitutionName": "NBML",
  "InstitutionalDepartmentName": "Department",
  "MRAcquisitionType": "2D",
  "MagneticFieldStrength": 3,
  "Manufacturer": "Siemens",
  "ManufacturersModelName": "Prisma",
  "Modality": "MR",
  "ParallelReductionFactorInPlane": 2,
  "PartialFourier": 1,
  "PatientPosition": "HFS",
  "PercentPhaseFOV": 100,
  "PhaseEncodingDirection": "j-",
  "PhaseEncodingSteps": 105,
  "PhaseOversampling": 0.5,
  "PhaseResolution": 1,
  "PixelBandwidth": 2465,
  "ProcedureStepDescription": "NBML_Project_Dr_Khaligh",
  "ProtocolName": "ep2d_p2_Task_3.5_measurment:237",
  "PulseSequenceDetails": "%SiemensSeq%_ep2d_pace",
  "ReceiveCoilActiveElements": "HC1-7;NC1",
  "ReceiveCoilName": "HeadNeck_64",
  "ReconMatrixPE": 70,
  "RefLinesPE": 24,
  "RepetitionTime": 2,
  "SAR": 0.0809912,
  "ScanOptions": "FS",
  "ScanningSequence": "EP",
  "SequenceName": "_epfid2d1_70",
  "SequenceVariant": "SK_OSP",
  "SeriesDescription": "ep2d_p2_Task_3.5_measurment:237",
  "SeriesNumber": 7,
  "ShimSetting": [2605, -4468, -3213, 359, -97, -39, -99, -2],
  "SliceThickness": 3.5,
  "SliceTiming": [0.99, 0, 1.0475, 0.0575, 1.105, 0.115, 1.1625, 0.1725, 1.2225, 0.2325, 1.28, 0.29, 1.3375, 0.3475, 1.3975, 0.4075, 1.455, 0.465, 1.5125, 0.5225, 1.57, 0.5825, 1.63, 0.64, 1.6875, 0.6975, 1.745, 0.755, 1.805, 0.815, 1.8625, 0.8725, 1.92, 0.93],
  "SoftwareVersions": "syngo_MR_E11",
  "SpacingBetweenSlices": 3.85,
  "StationName": "AWP66088",
  "TaskName": "categorySelectivity",
  "TotalReadoutTime": 0.0253573,
  "TxRefAmp": 228.389,
  "dcmmeta_affine": [
    [-3.532663106918335, 0.0308289285749197, 0.289919376373291, 118.12877655029297],
    [-0.09440983831882477, 3.1522574424743652, -1.754327416419983, -74.53201293945312],
    [0.2514245808124542, 1.6168361902236938, 3.4147887229919434, -97.92529296875],
    [0.0, 0.0, 0.0, 1.0]
],
  "dcmmeta_reorient_transform": [
    [0.0, -1.0, 0.0, 69.0],
    [1.0, 0.0, 0.0, 0.0],
    [0.0, 0.0, 1.0, 0.0],
    [0.0, 0.0, 0.0, 1.0]
],
  "dcmmeta_shape": [70, 70, 34, 237],
  "dcmmeta_slice_dim": 2,
  "dcmmeta_version": 0.6,
  "global": {
    "const": {
      "AccessionNumber": "97-06-15 MB",
      "AcquisitionMatrix": [70, 0, 0, 70],
      "AngioFlag": "N",
      "BitsAllocated": 16,
      "BitsStored": 12,
      "BodyPartExamined": "HEAD",
      "Columns": 420,
      "EchoNumbers": 1,
      "EchoTime": 30.0,
      "EchoTrainLength": 53,
      "FlipAngle": 90.0,
      "HighBit": 11,
      "ImageOrientationPatient": [0.99712267420458, 0.02664793776444, 0.07096661186792, 0.00870171358327, 0.889750091982, -0.4563650446723],
      "ImagePositionPatient": [-743.86709889624, -711.14054007082, 252.58343251909],
      "ImageType": [
        "ORIGINAL",
        "PRIMARY",
        "M",
        "ND",
        "NORM",
        "MOSAIC"
],
      "ImagedNucleus": "1H",
      "ImagingFrequency": 123.191148,
      "InPlanePhaseEncodingDirection": "COL",
      "MRAcquisitionType": "2D",
      "MagneticFieldStrength": 3.0,
      "Manufacturer": "SIEMENS",
      "ManufacturerModelName": "Prisma",
      "Modality": "MR",
      "NumberOfAverages": 1.0,
      "NumberOfPhaseEncodingSteps": 105,
      "PercentPhaseFieldOfView": 100.0,
      "PercentSampling": 100.0,
      "PerformedProcedureStepStartTime": "101241.248000",
      "PhotometricInterpretation": "MONOCHROME2",
      "PixelBandwidth": 2465.0,
      "PixelRepresentation": 0,
      "PixelSpacing": [3.542857170105, 3.542857170105],
      "ProtocolName": "ep2d_p2_Task_3.5_measurment:237",
      "RepetitionTime": 2000.0,
      "Rows": 420,
      "SAR": 0.08099119633908,
      "SamplesPerPixel": 1,
      "ScanOptions": "FS",
      "ScanningSequence": "EP",
      "SequenceName": "*epfid2d1_70",
      "SequenceVariant": [
        "SK",
        "OSP"
],
      "SeriesDescription": "ep2d_p2_Task_3.5_measurment:237",
      "SeriesNumber": 7,
      "SeriesTime": "110340.588000",
      "SliceLocation": -43.998133652623,
      "SliceThickness": 3.5,
      "SmallestImagePixelValue": 0,
      "SoftwareVersions": "syngo MR E11",
      "SpacingBetweenSlices": 3.8500000342037,
      "SpecificCharacterSet": "ISO_IR 100",
      "StudyID": "1",
      "StudyTime": "101241.199000",
      "TransmitCoilName": "Body",
      "VariableFlipAngleFlag": "N",
      "WindowCenterWidthExplanation": "Algo1",
      "dBdt": 0.0},
    "slices": {}
  },
  "time": {
    "samples": {
      "AcquisitionNumber": [1, 2, 3, 4, 5, 6, 7, 8, 9, 10, 11, 12, 13, 14, 15, 16, 17, 18, 19, 20, 21, 22, 23, 24, 25, 26, 27, 28, 29, 30, 31, 32, 33, 34, 35, 36, 37, 38, 39, 40, 41, 42, 43, 44, 45, 46, 47, 48, 49, 50, 51, 52, 53, 54, 55, 56, 57, 58, 59, 60, 61, 62, 63, 64, 65, 66, 67, 68, 69, 70, 71, 72, 73, 74, 75, 76, 77, 78, 79, 80, 81, 82, 83, 84, 85, 86, 87, 88, 89, 90, 91, 92, 93, 94, 95, 96, 97, 98, 99, 100, 101, 102, 103, 104, 105, 106, 107, 108, 109, 110, 111, 112, 113, 114, 115, 116, 117, 118, 119, 120, 121, 122, 123, 124, 125, 126, 127, 128, 129, 130, 131, 132, 133, 134, 135, 136, 137, 138, 139, 140, 141, 142, 143, 144, 145, 146, 147, 148, 149, 150, 151, 152, 153, 154, 155, 156, 157, 158, 159, 160, 161, 162, 163, 164, 165, 166, 167, 168, 169, 170, 171, 172, 173, 174, 175, 176, 177, 178, 179, 180, 181, 182, 183, 184, 185, 186, 187, 188, 189, 190, 191, 192, 193, 194, 195, 196, 197, 198, 199, 200, 201, 202, 203, 204, 205, 206, 207, 208, 209, 210, 211, 212, 213, 214, 215, 216, 217, 218, 219, 220, 221, 222, 223, 224, 225, 226, 227, 228, 229, 230, 231, 232, 233, 234, 235, 236, 237],
      "AcquisitionTime": ["110326.807500", "110328.807500", "110330.807500", "110332.807500", "110334.807500", "110336.807500", "110338.807500", "110340.807500", "110342.807500", "110344.807500", "110346.807500", "110348.807500", "110350.807500", "110352.807500", "110354.807500", "110356.807500", "110358.807500", "110400.807500", "110402.807500", "110404.807500", "110406.807500", "110408.807500", "110410.807500", "110412.807500", "110414.807500", "110416.807500", "110418.807500", "110420.807500", "110422.807500", "110424.807500", "110426.807500", "110428.807500", "110430.807500", "110432.807500", "110434.807500", "110436.807500", "110438.807500", "110440.807500", "110442.807500", "110444.807500", "110446.807500", "110448.807500", "110450.807500", "110452.807500", "110454.807500", "110456.807500", "110458.807500", "110500.807500", "110502.807500", "110504.807500", "110506.807500", "110508.807500", "110510.807500", "110512.807500", "110514.807500", "110516.807500", "110518.807500", "110520.807500", "110522.807500", "110524.807500", "110526.807500", "110528.807500", "110530.807500", "110532.807500", "110534.807500", "110536.807500", "110538.807500", "110540.807500", "110542.807500", "110544.807500", "110546.807500", "110548.807500", "110550.807500", "110552.807500", "110554.807500", "110556.807500", "110558.807500", "110600.807500", "110602.807500", "110604.807500", "110606.807500", "110608.807500", "110610.807500", "110612.807500", "110614.807500", "110616.807500", "110618.807500", "110620.807500", "110622.807500", "110624.807500", "110626.807500", "110628.807500", "110630.807500", "110632.807500", "110634.807500", "110636.807500", "110638.807500", "110640.807500", "110642.807500", "110644.807500", "110646.807500", "110648.807500", "110650.807500", "110652.807500", "110654.807500", "110656.807500", "110658.807500", "110700.807500", "110702.807500", "110704.807500", "110706.807500", "110708.807500", "110710.807500", "110712.807500", "110714.807500", "110716.807500", "110718.807500", "110720.807500", "110722.807500", "110724.807500", "110726.807500", "110728.807500", "110730.807500", "110732.807500", "110734.807500", "110736.807500", "110738.807500", "110740.807500", "110742.807500", "110744.807500", "110746.807500", "110748.807500", "110750.807500", "110752.807500", "110754.807500", "110756.807500", "110758.807500", "110800.807500", "110802.807500", "110804.807500", "110806.807500", "110808.807500", "110810.807500", "110812.807500", "110814.807500", "110816.807500", "110818.807500", "110820.807500", "110822.807500", "110824.807500", "110826.807500", "110828.807500", "110830.807500", "110832.807500", "110834.807500", "110836.807500", "110838.807500", "110840.807500", "110842.807500", "110844.807500", "110846.807500", "110848.807500", "110850.807500", "110852.807500", "110854.807500", "110856.807500", "110858.807500", "110900.807500", "110902.807500", "110904.807500", "110906.807500", "110908.807500", "110910.807500", "110912.807500", "110914.807500", "110916.807500", "110918.807500", "110920.807500", "110922.807500", "110924.807500", "110926.807500", "110928.807500", "110930.807500", "110932.807500", "110934.807500", "110936.807500", "110938.807500", "110940.807500", "110942.807500", "110944.807500", "110946.807500", "110948.807500", "110950.807500", "110952.807500", "110954.807500", "110956.807500", "110958.807500", "111000.807500", "111002.807500", "111004.807500", "111006.807500", "111008.807500", "111010.807500", "111012.807500", "111014.807500", "111016.807500", "111018.807500", "111020.807500", "111022.807500", "111024.807500", "111026.807500", "111028.807500", "111030.807500", "111032.807500", "111034.807500", "111036.807500", "111038.807500", "111040.807500", "111042.807500", "111044.807500", "111046.807500", "111048.807500", "111050.807500", "111052.807500", "111054.807500", "111056.807500", "111058.807500", "111100.807500", "111102.807500", "111104.807500", "111106.807500", "111108.807500", "111110.807500", "111112.807500", "111114.807500", "111116.807500", "111118.807500"],
      "ContentTime": ["110340.592000", "110340.596000", "110340.599000", "110340.602000", "110340.606000", "110340.609000", "110340.615000", "110420.584000", "110420.587000", "110420.590000", "110420.593000", "110420.631000", "110420.634000", "110420.638000", "110420.641000", "110420.644000", "110420.647000", "110420.650000", "110420.653000", "110420.657000", "110420.660000", "110420.665000", "110420.668000", "110420.671000", "110420.674000", "110420.677000", "110420.680000", "110500.584000", "110500.587000", "110500.591000", "110500.594000", "110500.597000", "110500.600000", "110500.603000", "110500.607000", "110500.610000", "110500.613000", "110500.616000", "110500.619000", "110500.623000", "110500.631000", "110500.634000", "110500.638000", "110500.641000", "110500.644000", "110500.647000", "110500.651000", "110540.584000", "110540.588000", "110540.591000", "110540.594000", "110540.598000", "110540.601000", "110540.604000", "110540.607000", "110540.610000", "110540.614000", "110540.617000", "110540.620000", "110540.623000", "110540.626000", "110540.629000", "110540.632000", "110540.636000", "110540.639000", "110540.642000", "110540.645000", "110620.585000", "110620.589000", "110620.592000", "110620.595000", "110620.599000", "110620.602000", "110620.605000", "110620.608000", "110620.618000", "110620.621000", "110620.624000", "110620.628000", "110620.631000", "110620.635000", "110620.638000", "110620.641000", "110620.644000", "110620.648000", "110620.651000", "110620.654000", "110700.584000", "110700.587000", "110700.591000", "110700.594000", "110700.597000", "110700.601000", "110700.604000", "110700.607000", "110700.610000", "110700.614000", "110700.617000", "110700.639000", "110700.643000", "110700.646000", "110700.649000", "110700.652000", "110700.655000", "110700.658000", "110700.662000", "110700.665000", "110740.584000", "110740.587000", "110740.591000", "110740.594000", "110740.597000", "110740.600000", "110740.604000", "110740.607000", "110740.610000", "110740.613000", "110740.617000", "110740.620000", "110740.624000", "110740.627000", "110740.630000", "110740.633000", "110740.637000", "110740.640000", "110740.643000", "110740.646000", "110820.585000", "110820.588000", "110820.591000", "110820.594000", "110820.598000", "110820.602000", "110820.605000", "110820.608000", "110820.611000", "110820.615000", "110820.623000", "110820.626000", "110820.629000", "110820.632000", "110820.636000", "110820.639000", "110820.642000", "110820.645000", "110820.648000", "110820.651000", "110900.584000", "110900.587000", "110900.590000", "110900.593000", "110900.597000", "110900.600000", "110900.603000", "110900.606000", "110900.609000", "110900.620000", "110900.623000", "110900.626000", "110900.629000", "110900.632000", "110900.636000", "110900.639000", "110900.642000", "110900.645000", "110900.648000", "110900.651000", "110940.584000", "110940.587000", "110940.591000", "110940.594000", "110940.597000", "110940.600000", "110940.603000", "110940.606000", "110940.610000", "110940.613000", "110940.616000", "110940.619000", "110940.623000", "110940.626000", "110940.629000", "110940.632000", "110940.636000", "110940.639000", "110940.642000", "110940.645000", "111020.584000", "111020.587000", "111020.590000", "111020.593000", "111020.597000", "111020.600000", "111020.603000", "111020.606000", "111020.610000", "111020.613000", "111020.616000", "111020.619000", "111020.623000", "111020.626000", "111020.629000", "111020.632000", "111020.636000", "111020.639000", "111020.642000", "111020.645000", "111100.584000", "111100.588000", "111100.591000", "111100.595000", "111100.598000", "111100.602000", "111100.605000", "111100.608000", "111100.612000", "111100.616000", "111100.620000", "111100.623000", "111100.627000", "111100.630000", "111100.633000", "111100.637000", "111100.640000", "111100.644000", "111100.647000", "111100.650000", "111120.643000", "111120.646000", "111120.651000", "111120.655000", "111120.658000", "111120.661000", "111120.665000", "111120.668000", "111120.672000", "111120.675000"],
      "InstanceCreationTime": ["110340.592000", "110340.596000", "110340.599000", "110340.602000", "110340.606000", "110340.609000", "110340.615000", "110420.584000", "110420.587000", "110420.590000", "110420.593000", "110420.631000", "110420.634000", "110420.638000", "110420.641000", "110420.644000", "110420.647000", "110420.650000", "110420.653000", "110420.657000", "110420.660000", "110420.665000", "110420.668000", "110420.671000", "110420.674000", "110420.677000", "110420.680000", "110500.584000", "110500.587000", "110500.591000", "110500.594000", "110500.597000", "110500.600000", "110500.603000", "110500.607000", "110500.610000", "110500.613000", "110500.616000", "110500.619000", "110500.623000", "110500.631000", "110500.634000", "110500.638000", "110500.641000", "110500.644000", "110500.647000", "110500.651000", "110540.584000", "110540.588000", "110540.591000", "110540.594000", "110540.598000", "110540.601000", "110540.604000", "110540.607000", "110540.610000", "110540.614000", "110540.617000", "110540.620000", "110540.623000", "110540.626000", "110540.629000", "110540.632000", "110540.636000", "110540.639000", "110540.642000", "110540.645000", "110620.585000", "110620.589000", "110620.592000", "110620.595000", "110620.599000", "110620.602000", "110620.605000", "110620.608000", "110620.618000", "110620.621000", "110620.624000", "110620.628000", "110620.631000", "110620.635000", "110620.638000", "110620.641000", "110620.644000", "110620.648000", "110620.651000", "110620.654000", "110700.584000", "110700.587000", "110700.591000", "110700.594000", "110700.597000", "110700.601000", "110700.604000", "110700.607000", "110700.610000", "110700.614000", "110700.617000", "110700.639000", "110700.643000", "110700.646000", "110700.649000", "110700.652000", "110700.655000", "110700.658000", "110700.662000", "110700.665000", "110740.584000", "110740.587000", "110740.591000", "110740.594000", "110740.597000", "110740.600000", "110740.604000", "110740.607000", "110740.610000", "110740.613000", "110740.617000", "110740.620000", "110740.624000", "110740.627000", "110740.630000", "110740.633000", "110740.637000", "110740.640000", "110740.643000", "110740.646000", "110820.585000", "110820.588000", "110820.591000", "110820.594000", "110820.598000", "110820.602000", "110820.605000", "110820.608000", "110820.611000", "110820.615000", "110820.623000", "110820.626000", "110820.629000", "110820.632000", "110820.636000", "110820.639000", "110820.642000", "110820.645000", "110820.648000", "110820.651000", "110900.584000", "110900.587000", "110900.590000", "110900.593000", "110900.597000", "110900.600000", "110900.603000", "110900.606000", "110900.609000", "110900.620000", "110900.623000", "110900.626000", "110900.629000", "110900.632000", "110900.636000", "110900.639000", "110900.642000", "110900.645000", "110900.648000", "110900.651000", "110940.584000", "110940.587000", "110940.591000", "110940.594000", "110940.597000", "110940.600000", "110940.603000", "110940.606000", "110940.610000", "110940.613000", "110940.616000", "110940.619000", "110940.623000", "110940.626000", "110940.629000", "110940.632000", "110940.636000", "110940.639000", "110940.642000", "110940.645000", "111020.584000", "111020.587000", "111020.590000", "111020.593000", "111020.597000", "111020.600000", "111020.603000", "111020.606000", "111020.610000", "111020.613000", "111020.616000", "111020.619000", "111020.623000", "111020.626000", "111020.629000", "111020.632000", "111020.636000", "111020.639000", "111020.642000", "111020.645000", "111100.584000", "111100.588000", "111100.591000", "111100.595000", "111100.598000", "111100.602000", "111100.605000", "111100.608000", "111100.612000", "111100.616000", "111100.620000", "111100.623000", "111100.627000", "111100.630000", "111100.633000", "111100.637000", "111100.640000", "111100.644000", "111100.647000", "111100.650000", "111120.643000", "111120.646000", "111120.651000", "111120.655000", "111120.658000", "111120.661000", "111120.665000", "111120.668000", "111120.672000", "111120.675000"],
      "InstanceNumber": [1, 2, 3, 4, 5, 6, 7, 8, 9, 10, 11, 12, 13, 14, 15, 16, 17, 18, 19, 20, 21, 22, 23, 24, 25, 26, 27, 28, 29, 30, 31, 32, 33, 34, 35, 36, 37, 38, 39, 40, 41, 42, 43, 44, 45, 46, 47, 48, 49, 50, 51, 52, 53, 54, 55, 56, 57, 58, 59, 60, 61, 62, 63, 64, 65, 66, 67, 68, 69, 70, 71, 72, 73, 74, 75, 76, 77, 78, 79, 80, 81, 82, 83, 84, 85, 86, 87, 88, 89, 90, 91, 92, 93, 94, 95, 96, 97, 98, 99, 100, 101, 102, 103, 104, 105, 106, 107, 108, 109, 110, 111, 112, 113, 114, 115, 116, 117, 118, 119, 120, 121, 122, 123, 124, 125, 126, 127, 128, 129, 130, 131, 132, 133, 134, 135, 136, 137, 138, 139, 140, 141, 142, 143, 144, 145, 146, 147, 148, 149, 150, 151, 152, 153, 154, 155, 156, 157, 158, 159, 160, 161, 162, 163, 164, 165, 166, 167, 168, 169, 170, 171, 172, 173, 174, 175, 176, 177, 178, 179, 180, 181, 182, 183, 184, 185, 186, 187, 188, 189, 190, 191, 192, 193, 194, 195, 196, 197, 198, 199, 200, 201, 202, 203, 204, 205, 206, 207, 208, 209, 210, 211, 212, 213, 214, 215, 216, 217, 218, 219, 220, 221, 222, 223, 224, 225, 226, 227, 228, 229, 230, 231, 232, 233, 234, 235, 236, 237],
      "LargestImagePixelValue": [1760, 2027, 1708, 2050, 1921, 2708, 1713, 1701, 2492, 1799, 1733, 2068, 2395, 1697, 1736, 1997, 1712, 1740, 1745, 2346, 1694, 1695, 1838, 2276, 1701, 1691, 2094, 2323, 1697, 1874, 2266, 1727, 1693, 1852, 2206, 1689, 1974, 1945, 1669, 1725, 1978, 2724, 1772, 1697, 1914, 1821, 1697, 1737, 1886, 2396, 1832, 1745, 2264, 2280, 1766, 1857, 1998, 1680, 1909, 2412, 1692, 1717, 1950, 2055, 1668, 2172, 2377, 1767, 2142, 2149, 1868, 1799, 1675, 1696, 2553, 1915, 1770, 2035, 1674, 1710, 2122, 1724, 1695, 1812, 2652, 1730, 1764, 2048, 2274, 1724, 1679, 1881, 1878, 1664, 2011, 1857, 2359, 1675, 1731, 1689, 2100, 1732, 1835, 2665, 2067, 1749, 1898, 2421, 1702, 1680, 2241, 2141, 1685, 1790, 1882, 1670, 1723, 2234, 2517, 1738, 1764, 2097, 1676, 1694, 2094, 1825, 1696, 1997, 2232, 1677, 1822, 2292, 1991, 1706, 2071, 2204, 1685, 1763, 1814, 1963, 1690, 1779, 2346, 1669, 1704, 1699, 2404, 1744, 1760, 1822, 2011, 1692, 1731, 2194, 2416, 1741, 1698, 2381, 1673, 1692, 2293, 1669, 1694, 2261, 2863, 1764, 1691, 1963, 1921, 1827, 1759, 2219, 1684, 1784, 2642, 2331, 1830, 1915, 2025, 1674, 1886, 2145, 1728, 1803, 2397, 1853, 1677, 2265, 1702, 1963, 2391, 1720, 1849, 2339, 1703, 1721, 2000, 1718, 1702, 2390, 2385, 1763, 2186, 1680, 1699, 2059, 1730, 1750, 1846, 1773, 1779, 1847, 2386, 1688, 1696, 1865, 2500, 1744, 1759, 1925, 2368, 1680, 1815, 2445, 1687, 1697, 2301, 1690, 1688, 2144, 2472, 1766, 1688, 2055, 2081, 1687, 1909],
      "WindowCenter": [692.0, 693.0, 691.0, 692.0, 691.0, 693.0, 689.0, 688.0, 692.0, 689.0, 689.0, 690.0, 691.0, 689.0, 689.0, 691.0, 689.0, 689.0, 689.0, 692.0, 689.0, 689.0, 689.0, 691.0, 689.0, 690.0, 691.0, 692.0, 689.0, 690.0, 691.0, 689.0, 689.0, 690.0, 692.0, 689.0, 690.0, 690.0, 689.0, 689.0, 690.0, 692.0, 689.0, 689.0, 690.0, 690.0, 690.0, 691.0, 691.0, 693.0, 690.0, 689.0, 691.0, 691.0, 689.0, 689.0, 691.0, 689.0, 690.0, 691.0, 688.0, 689.0, 690.0, 691.0, 690.0, 691.0, 692.0, 689.0, 690.0, 690.0, 689.0, 689.0, 689.0, 689.0, 692.0, 690.0, 689.0, 690.0, 689.0, 689.0, 691.0, 689.0, 690.0, 690.0, 693.0, 689.0, 688.0, 690.0, 691.0, 688.0, 688.0, 689.0, 690.0, 689.0, 691.0, 689.0, 691.0, 688.0, 689.0, 689.0, 691.0, 690.0, 690.0, 692.0, 690.0, 689.0, 689.0, 691.0, 688.0, 689.0, 691.0, 691.0, 689.0, 689.0, 689.0, 689.0, 689.0, 691.0, 692.0, 688.0, 689.0, 691.0, 689.0, 689.0, 691.0, 690.0, 689.0, 690.0, 691.0, 689.0, 690.0, 691.0, 691.0, 689.0, 690.0, 691.0, 688.0, 689.0, 690.0, 690.0, 689.0, 689.0, 692.0, 689.0, 689.0, 690.0, 692.0, 689.0, 688.0, 689.0, 690.0, 690.0, 689.0, 690.0, 691.0, 689.0, 689.0, 691.0, 689.0, 688.0, 691.0, 689.0, 689.0, 692.0, 693.0, 689.0, 688.0, 690.0, 691.0, 690.0, 689.0, 693.0, 690.0, 690.0, 692.0, 691.0, 689.0, 691.0, 691.0, 689.0, 690.0, 691.0, 689.0, 690.0, 691.0, 689.0, 690.0, 692.0, 689.0, 690.0, 692.0, 690.0, 690.0, 691.0, 688.0, 688.0, 690.0, 690.0, 690.0, 693.0, 692.0, 689.0, 690.0, 688.0, 689.0, 691.0, 690.0, 688.0, 689.0, 690.0, 690.0, 690.0, 691.0, 689.0, 690.0, 690.0, 692.0, 689.0, 689.0, 690.0, 692.0, 689.0, 690.0, 691.0, 689.0, 689.0, 691.0, 689.0, 690.0, 692.0, 693.0, 689.0, 688.0, 691.0, 691.0, 689.0, 690.0],
      "WindowWidth": [1530.0, 1532.0, 1526.0, 1529.0, 1526.0, 1533.0, 1521.0, 1519.0, 1530.0, 1521.0, 1520.0, 1525.0, 1529.0, 1520.0, 1521.0, 1526.0, 1521.0, 1521.0, 1521.0, 1529.0, 1521.0, 1521.0, 1521.0, 1526.0, 1519.0, 1522.0, 1527.0, 1529.0, 1520.0, 1524.0, 1528.0, 1521.0, 1519.0, 1524.0, 1529.0, 1520.0, 1524.0, 1524.0, 1520.0, 1522.0, 1524.0, 1530.0, 1520.0, 1520.0, 1523.0, 1523.0, 1522.0, 1526.0, 1526.0, 1532.0, 1522.0, 1521.0, 1528.0, 1528.0, 1519.0, 1522.0, 1526.0, 1520.0, 1522.0, 1528.0, 1519.0, 1521.0, 1525.0, 1526.0, 1521.0, 1526.0, 1530.0, 1521.0, 1525.0, 1524.0, 1520.0, 1521.0, 1521.0, 1521.0, 1532.0, 1522.0, 1520.0, 1523.0, 1520.0, 1521.0, 1527.0, 1522.0, 1522.0, 1523.0, 1533.0, 1520.0, 1518.0, 1522.0, 1526.0, 1517.0, 1516.0, 1520.0, 1523.0, 1521.0, 1525.0, 1521.0, 1527.0, 1519.0, 1521.0, 1521.0, 1529.0, 1523.0, 1523.0, 1531.0, 1524.0, 1520.0, 1521.0, 1527.0, 1518.0, 1520.0, 1528.0, 1527.0, 1519.0, 1520.0, 1521.0, 1521.0, 1521.0, 1527.0, 1529.0, 1518.0, 1519.0, 1526.0, 1521.0, 1519.0, 1527.0, 1524.0, 1521.0, 1524.0, 1528.0, 1521.0, 1523.0, 1528.0, 1526.0, 1519.0, 1525.0, 1527.0, 1517.0, 1520.0, 1522.0, 1523.0, 1520.0, 1520.0, 1529.0, 1519.0, 1520.0, 1522.0, 1532.0, 1522.0, 1518.0, 1520.0, 1525.0, 1524.0, 1522.0, 1526.0, 1528.0, 1521.0, 1521.0, 1529.0, 1520.0, 1518.0, 1527.0, 1521.0, 1522.0, 1529.0, 1533.0, 1519.0, 1517.0, 1522.0, 1525.0, 1522.0, 1521.0, 1532.0, 1523.0, 1523.0, 1531.0, 1528.0, 1521.0, 1525.0, 1527.0, 1520.0, 1522.0, 1525.0, 1519.0, 1522.0, 1528.0, 1522.0, 1522.0, 1530.0, 1520.0, 1525.0, 1530.0, 1521.0, 1522.0, 1528.0, 1519.0, 1518.0, 1524.0, 1522.0, 1523.0, 1531.0, 1529.0, 1521.0, 1525.0, 1519.0, 1520.0, 1526.0, 1523.0, 1518.0, 1520.0, 1522.0, 1523.0, 1522.0, 1527.0, 1519.0, 1522.0, 1523.0, 1531.0, 1521.0, 1520.0, 1523.0, 1530.0, 1521.0, 1522.0, 1528.0, 1519.0, 1519.0, 1526.0, 1522.0, 1523.0, 1529.0, 1531.0, 1520.0, 1518.0, 1525.0, 1527.0, 1520.0, 1522.0]
    },
    "slices": {}
  }
}