{
  "AcquisitionMatrixPE": 70,
  "AcquisitionNumber": 1,
  "AcquisitionTime": "11:29:31.250000",
  "BandwidthPerPixelPhaseEncode": 38.873,
  "BaseResolution": 70,
  "BodyPartExamined": "HEAD",
  "ConsistencyInfo": "N4_VE11B_LATEST_20150530",
  "ConversionSoftware": "dcm2niix",
  "ConversionSoftwareVersion": "v1.0.20190410  GCC6.3.0",
  "DerivedVendorReportedEchoSpacing": 0.000489996,
  "DeviceSerialNumber": "66088",
  "DwellTime": 2.9e-06,
  "EchoTime": 0.03,
  "EchoTrainLength": 53,
  "EffectiveEchoSpacing": 0.000367497,
  "FlipAngle": 90,
  "ImageOrientationPatientDICOM": [0.997123, 0.0266479, 0.0709666, 0.00870171, 0.88975, -0.456365],
  "ImageType": [
    "ORIGINAL",
    "PRIMARY",
    "M",
    "ND",
    "NORM",
    "MOSAIC"
],
  "ImagingFrequency": 123.191,
  "InPlanePhaseEncodingDirectionDICOM": "COL",
  "InstitutionAddress": "Street_StreetNo_City_District_IR_ZIP",
  "InstitutionName": "NBML",
  "InstitutionalDepartmentName": "Department",
  "MRAcquisitionType": "2D",
  "MagneticFieldStrength": 3,
  "Manufacturer": "Siemens",
  "ManufacturersModelName": "Prisma",
  "Modality": "MR",
  "ParallelReductionFactorInPlane": 2,
  "PartialFourier": 1,
  "PatientPosition": "HFS",
  "PercentPhaseFOV": 100,
  "PhaseEncodingDirection": "j-",
  "PhaseEncodingSteps": 105,
  "PhaseOversampling": 0.5,
  "PhaseResolution": 1,
  "PixelBandwidth": 2465,
  "ProcedureStepDescription": "NBML_Project_Dr_Khaligh",
  "ProtocolName": "ep2d_p2_Task_3.5_measurment:237",
  "PulseSequenceDetails": "%SiemensSeq%_ep2d_pace",
  "ReceiveCoilActiveElements": "HC1-7;NC1",
  "ReceiveCoilName": "HeadNeck_64",
  "ReconMatrixPE": 70,
  "RefLinesPE": 24,
  "RepetitionTime": 2,
  "SAR": 0.0809912,
  "ScanOptions": "FS",
  "ScanningSequence": "EP",
  "SequenceName": "_epfid2d1_70",
  "SequenceVariant": "SK_OSP",
  "SeriesDescription": "ep2d_p2_Task_3.5_measurment:237",
  "SeriesNumber": 10,
  "ShimSetting": [2605, -4468, -3213, 359, -97, -39, -99, -2],
  "SliceThickness": 3.5,
  "SliceTiming": [0.99, 0, 1.05, 0.06, 1.1075, 0.1175, 1.165, 0.175, 1.225, 0.235, 1.2825, 0.2925, 1.34, 0.35, 1.3975, 0.4075, 1.4575, 0.4675, 1.515, 0.525, 1.5725, 0.5825, 1.6325, 0.6425, 1.69, 0.7, 1.7475, 0.7575, 1.805, 0.8175, 1.865, 0.875, 1.9225, 0.9325],
  "SoftwareVersions": "syngo_MR_E11",
  "SpacingBetweenSlices": 3.85,
  "StationName": "AWP66088",
  "TaskName": "categorySelectivity",
  "TotalReadoutTime": 0.0253573,
  "TxRefAmp": 228.389,
  "dcmmeta_affine": [
    [-3.532663106918335, 0.0308289285749197, 0.289919376373291, 118.12877655029297],
    [-0.09440983831882477, 3.1522574424743652, -1.754327416419983, -74.53201293945312],
    [0.2514245808124542, 1.6168361902236938, 3.4147887229919434, -97.92529296875],
    [0.0, 0.0, 0.0, 1.0]
],
  "dcmmeta_reorient_transform": [
    [0.0, -1.0, 0.0, 69.0],
    [1.0, 0.0, 0.0, 0.0],
    [0.0, 0.0, 1.0, 0.0],
    [0.0, 0.0, 0.0, 1.0]
],
  "dcmmeta_shape": [70, 70, 34, 237],
  "dcmmeta_slice_dim": 2,
  "dcmmeta_version": 0.6,
  "global": {
    "const": {
      "AccessionNumber": "97-06-15 MB",
      "AcquisitionMatrix": [70, 0, 0, 70],
      "AngioFlag": "N",
      "BitsAllocated": 16,
      "BitsStored": 12,
      "BodyPartExamined": "HEAD",
      "Columns": 420,
      "EchoNumbers": 1,
      "EchoTime": 30.0,
      "EchoTrainLength": 53,
      "FlipAngle": 90.0,
      "HighBit": 11,
      "ImageOrientationPatient": [0.99712267420458, 0.02664793776444, 0.07096661186792, 0.00870171358327, 0.889750091982, -0.4563650446723],
      "ImagePositionPatient": [-743.86709889624, -711.14054007082, 252.58343251909],
      "ImageType": [
        "ORIGINAL",
        "PRIMARY",
        "M",
        "ND",
        "NORM",
        "MOSAIC"
],
      "ImagedNucleus": "1H",
      "ImagingFrequency": 123.191149,
      "InPlanePhaseEncodingDirection": "COL",
      "MRAcquisitionType": "2D",
      "MagneticFieldStrength": 3.0,
      "Manufacturer": "SIEMENS",
      "ManufacturerModelName": "Prisma",
      "Modality": "MR",
      "NumberOfAverages": 1.0,
      "NumberOfPhaseEncodingSteps": 105,
      "PercentPhaseFieldOfView": 100.0,
      "PercentSampling": 100.0,
      "PerformedProcedureStepStartTime": "101241.248000",
      "PhotometricInterpretation": "MONOCHROME2",
      "PixelBandwidth": 2465.0,
      "PixelRepresentation": 0,
      "PixelSpacing": [3.542857170105, 3.542857170105],
      "ProtocolName": "ep2d_p2_Task_3.5_measurment:237",
      "RepetitionTime": 2000.0,
      "Rows": 420,
      "SAR": 0.08099119633908,
      "SamplesPerPixel": 1,
      "ScanOptions": "FS",
      "ScanningSequence": "EP",
      "SequenceName": "*epfid2d1_70",
      "SequenceVariant": [
        "SK",
        "OSP"
],
      "SeriesDescription": "ep2d_p2_Task_3.5_measurment:237",
      "SeriesNumber": 10,
      "SeriesTime": "113020.588000",
      "SliceLocation": -43.998133652623,
      "SliceThickness": 3.5,
      "SmallestImagePixelValue": 0,
      "SoftwareVersions": "syngo MR E11",
      "SpacingBetweenSlices": 3.8500000342037,
      "SpecificCharacterSet": "ISO_IR 100",
      "StudyID": "1",
      "StudyTime": "101241.199000",
      "TransmitCoilName": "Body",
      "VariableFlipAngleFlag": "N",
      "WindowCenterWidthExplanation": "Algo1",
      "dBdt": 0.0},
    "slices": {}
  },
  "time": {
    "samples": {
      "AcquisitionNumber": [1, 2, 3, 4, 5, 6, 7, 8, 9, 10, 11, 12, 13, 14, 15, 16, 17, 18, 19, 20, 21, 22, 23, 24, 25, 26, 27, 28, 29, 30, 31, 32, 33, 34, 35, 36, 37, 38, 39, 40, 41, 42, 43, 44, 45, 46, 47, 48, 49, 50, 51, 52, 53, 54, 55, 56, 57, 58, 59, 60, 61, 62, 63, 64, 65, 66, 67, 68, 69, 70, 71, 72, 73, 74, 75, 76, 77, 78, 79, 80, 81, 82, 83, 84, 85, 86, 87, 88, 89, 90, 91, 92, 93, 94, 95, 96, 97, 98, 99, 100, 101, 102, 103, 104, 105, 106, 107, 108, 109, 110, 111, 112, 113, 114, 115, 116, 117, 118, 119, 120, 121, 122, 123, 124, 125, 126, 127, 128, 129, 130, 131, 132, 133, 134, 135, 136, 137, 138, 139, 140, 141, 142, 143, 144, 145, 146, 147, 148, 149, 150, 151, 152, 153, 154, 155, 156, 157, 158, 159, 160, 161, 162, 163, 164, 165, 166, 167, 168, 169, 170, 171, 172, 173, 174, 175, 176, 177, 178, 179, 180, 181, 182, 183, 184, 185, 186, 187, 188, 189, 190, 191, 192, 193, 194, 195, 196, 197, 198, 199, 200, 201, 202, 203, 204, 205, 206, 207, 208, 209, 210, 211, 212, 213, 214, 215, 216, 217, 218, 219, 220, 221, 222, 223, 224, 225, 226, 227, 228, 229, 230, 231, 232, 233, 234, 235, 236, 237],
      "AcquisitionTime": ["112931.250000", "112933.250000", "112935.250000", "112937.250000", "112939.250000", "112941.250000", "112943.250000", "112945.250000", "112947.250000", "112949.250000", "112951.250000", "112953.250000", "112955.250000", "112957.250000", "112959.250000", "113001.250000", "113003.250000", "113005.250000", "113007.250000", "113009.250000", "113011.250000", "113013.250000", "113015.250000", "113017.250000", "113019.250000", "113021.250000", "113023.250000", "113025.250000", "113027.250000", "113029.250000", "113031.250000", "113033.250000", "113035.250000", "113037.250000", "113039.250000", "113041.250000", "113043.250000", "113045.250000", "113047.250000", "113049.250000", "113051.250000", "113053.250000", "113055.250000", "113057.250000", "113059.250000", "113101.250000", "113103.250000", "113105.250000", "113107.250000", "113109.250000", "113111.250000", "113113.250000", "113115.250000", "113117.250000", "113119.250000", "113121.250000", "113123.250000", "113125.250000", "113127.250000", "113129.250000", "113131.250000", "113133.250000", "113135.250000", "113137.250000", "113139.250000", "113141.250000", "113143.250000", "113145.250000", "113147.250000", "113149.250000", "113151.250000", "113153.250000", "113155.250000", "113157.250000", "113159.250000", "113201.250000", "113203.250000", "113205.250000", "113207.250000", "113209.250000", "113211.250000", "113213.250000", "113215.250000", "113217.250000", "113219.250000", "113221.250000", "113223.250000", "113225.250000", "113227.250000", "113229.250000", "113231.250000", "113233.250000", "113235.250000", "113237.250000", "113239.250000", "113241.250000", "113243.250000", "113245.250000", "113247.250000", "113249.250000", "113251.250000", "113253.250000", "113255.250000", "113257.250000", "113259.250000", "113301.250000", "113303.250000", "113305.250000", "113307.250000", "113309.250000", "113311.250000", "113313.250000", "113315.250000", "113317.250000", "113319.250000", "113321.250000", "113323.250000", "113325.250000", "113327.250000", "113329.250000", "113331.250000", "113333.250000", "113335.250000", "113337.250000", "113339.250000", "113341.250000", "113343.250000", "113345.250000", "113347.250000", "113349.250000", "113351.250000", "113353.250000", "113355.250000", "113357.250000", "113359.250000", "113401.250000", "113403.250000", "113405.250000", "113407.250000", "113409.250000", "113411.250000", "113413.250000", "113415.250000", "113417.250000", "113419.250000", "113421.250000", "113423.250000", "113425.250000", "113427.250000", "113429.250000", "113431.250000", "113433.250000", "113435.250000", "113437.250000", "113439.250000", "113441.250000", "113443.250000", "113445.250000", "113447.250000", "113449.250000", "113451.250000", "113453.250000", "113455.250000", "113457.250000", "113459.250000", "113501.250000", "113503.250000", "113505.250000", "113507.250000", "113509.250000", "113511.250000", "113513.250000", "113515.250000", "113517.250000", "113519.250000", "113521.250000", "113523.250000", "113525.250000", "113527.250000", "113529.250000", "113531.250000", "113533.250000", "113535.250000", "113537.250000", "113539.250000", "113541.250000", "113543.250000", "113545.250000", "113547.250000", "113549.250000", "113551.250000", "113553.250000", "113555.250000", "113557.250000", "113559.250000", "113601.250000", "113603.250000", "113605.250000", "113607.250000", "113609.250000", "113611.250000", "113613.250000", "113615.250000", "113617.250000", "113619.250000", "113621.250000", "113623.250000", "113625.250000", "113627.250000", "113629.250000", "113631.250000", "113633.250000", "113635.250000", "113637.250000", "113639.250000", "113641.250000", "113643.250000", "113645.250000", "113647.250000", "113649.250000", "113651.250000", "113653.250000", "113655.250000", "113657.250000", "113659.250000", "113701.250000", "113703.250000", "113705.250000", "113707.250000", "113709.250000", "113711.250000", "113713.250000", "113715.250000", "113717.250000", "113719.250000", "113721.250000", "113723.250000"],
      "ContentTime": ["113020.595000", "113020.601000", "113020.604000", "113020.608000", "113020.611000", "113020.614000", "113020.618000", "113020.621000", "113020.624000", "113020.628000", "113020.633000", "113020.636000", "113020.639000", "113020.647000", "113020.651000", "113020.654000", "113020.657000", "113020.660000", "113020.664000", "113020.667000", "113020.671000", "113020.674000", "113020.677000", "113020.680000", "113100.586000", "113100.589000", "113100.592000", "113100.596000", "113100.599000", "113100.603000", "113100.606000", "113100.609000", "113100.612000", "113100.615000", "113100.619000", "113100.622000", "113100.625000", "113100.628000", "113100.632000", "113100.635000", "113100.638000", "113100.642000", "113100.645000", "113100.648000", "113140.583000", "113140.586000", "113140.588000", "113140.591000", "113140.594000", "113140.597000", "113140.600000", "113140.603000", "113140.605000", "113140.608000", "113140.610000", "113140.613000", "113140.615000", "113140.618000", "113140.620000", "113140.623000", "113140.625000", "113140.628000", "113140.630000", "113140.633000", "113220.584000", "113220.588000", "113220.591000", "113220.594000", "113220.598000", "113220.602000", "113220.605000", "113220.609000", "113220.612000", "113220.615000", "113220.619000", "113220.622000", "113220.625000", "113220.628000", "113220.632000", "113220.635000", "113220.639000", "113220.642000", "113220.645000", "113220.648000", "113300.584000", "113300.588000", "113300.591000", "113300.595000", "113300.599000", "113300.602000", "113300.605000", "113300.609000", "113300.612000", "113300.615000", "113300.619000", "113300.622000", "113300.625000", "113300.628000", "113300.647000", "113300.650000", "113300.653000", "113300.662000", "113300.666000", "113300.669000", "113320.584000", "113320.588000", "113320.592000", "113320.595000", "113320.599000", "113320.603000", "113320.606000", "113320.609000", "113320.612000", "113320.615000", "113400.584000", "113400.588000", "113400.591000", "113400.594000", "113400.598000", "113400.608000", "113400.611000", "113400.615000", "113400.618000", "113400.621000", "113400.624000", "113400.628000", "113400.631000", "113400.634000", "113400.637000", "113400.641000", "113400.644000", "113400.647000", "113400.650000", "113400.653000", "113440.584000", "113440.587000", "113440.589000", "113440.592000", "113440.594000", "113440.597000", "113440.600000", "113440.602000", "113440.605000", "113440.607000", "113440.610000", "113440.613000", "113440.615000", "113440.617000", "113440.620000", "113440.622000", "113440.625000", "113440.627000", "113440.630000", "113440.632000", "113520.585000", "113520.589000", "113520.592000", "113520.595000", "113520.599000", "113520.602000", "113520.605000", "113520.608000", "113520.612000", "113520.615000", "113520.618000", "113520.621000", "113520.625000", "113520.628000", "113520.631000", "113520.634000", "113520.637000", "113520.640000", "113520.643000", "113520.647000", "113600.586000", "113600.589000", "113600.594000", "113600.597000", "113600.600000", "113600.604000", "113600.607000", "113600.610000", "113600.613000", "113600.617000", "113600.620000", "113600.624000", "113600.627000", "113600.630000", "113600.633000", "113600.636000", "113600.640000", "113600.643000", "113600.646000", "113600.649000", "113640.585000", "113640.588000", "113640.591000", "113640.594000", "113640.597000", "113640.600000", "113640.602000", "113640.605000", "113640.608000", "113640.610000", "113640.613000", "113640.616000", "113640.619000", "113640.621000", "113640.624000", "113640.626000", "113640.629000", "113640.631000", "113640.633000", "113640.636000", "113720.584000", "113720.588000", "113720.593000", "113720.596000", "113720.599000", "113720.603000", "113720.606000", "113720.610000", "113720.613000", "113720.617000", "113720.620000", "113720.624000", "113720.627000", "113720.630000", "113720.634000", "113720.637000", "113720.640000", "113720.643000", "113720.646000", "113720.650000", "113724.659000", "113724.667000", "113724.672000"],
      "InstanceCreationTime": ["113020.595000", "113020.601000", "113020.604000", "113020.608000", "113020.611000", "113020.614000", "113020.618000", "113020.621000", "113020.624000", "113020.628000", "113020.633000", "113020.636000", "113020.639000", "113020.647000", "113020.651000", "113020.654000", "113020.657000", "113020.660000", "113020.664000", "113020.667000", "113020.671000", "113020.674000", "113020.677000", "113020.680000", "113100.586000", "113100.589000", "113100.592000", "113100.596000", "113100.599000", "113100.603000", "113100.606000", "113100.609000", "113100.612000", "113100.615000", "113100.619000", "113100.622000", "113100.625000", "113100.628000", "113100.632000", "113100.635000", "113100.638000", "113100.642000", "113100.645000", "113100.648000", "113140.583000", "113140.586000", "113140.588000", "113140.591000", "113140.594000", "113140.597000", "113140.600000", "113140.603000", "113140.605000", "113140.608000", "113140.610000", "113140.613000", "113140.615000", "113140.618000", "113140.620000", "113140.623000", "113140.625000", "113140.628000", "113140.630000", "113140.633000", "113220.584000", "113220.588000", "113220.591000", "113220.594000", "113220.598000", "113220.602000", "113220.605000", "113220.609000", "113220.612000", "113220.615000", "113220.619000", "113220.622000", "113220.625000", "113220.628000", "113220.632000", "113220.635000", "113220.639000", "113220.642000", "113220.645000", "113220.648000", "113300.584000", "113300.588000", "113300.591000", "113300.595000", "113300.599000", "113300.602000", "113300.605000", "113300.609000", "113300.612000", "113300.615000", "113300.619000", "113300.622000", "113300.625000", "113300.628000", "113300.647000", "113300.650000", "113300.653000", "113300.662000", "113300.666000", "113300.669000", "113320.584000", "113320.588000", "113320.592000", "113320.595000", "113320.599000", "113320.603000", "113320.606000", "113320.609000", "113320.612000", "113320.615000", "113400.584000", "113400.588000", "113400.591000", "113400.594000", "113400.598000", "113400.608000", "113400.611000", "113400.615000", "113400.618000", "113400.621000", "113400.624000", "113400.628000", "113400.631000", "113400.634000", "113400.637000", "113400.641000", "113400.644000", "113400.647000", "113400.650000", "113400.653000", "113440.584000", "113440.587000", "113440.589000", "113440.592000", "113440.594000", "113440.597000", "113440.600000", "113440.602000", "113440.605000", "113440.607000", "113440.610000", "113440.613000", "113440.615000", "113440.617000", "113440.620000", "113440.622000", "113440.625000", "113440.627000", "113440.630000", "113440.632000", "113520.585000", "113520.589000", "113520.592000", "113520.595000", "113520.599000", "113520.602000", "113520.605000", "113520.608000", "113520.612000", "113520.615000", "113520.618000", "113520.621000", "113520.625000", "113520.628000", "113520.631000", "113520.634000", "113520.637000", "113520.640000", "113520.643000", "113520.647000", "113600.586000", "113600.589000", "113600.594000", "113600.597000", "113600.600000", "113600.604000", "113600.607000", "113600.610000", "113600.613000", "113600.617000", "113600.620000", "113600.624000", "113600.627000", "113600.630000", "113600.633000", "113600.636000", "113600.640000", "113600.643000", "113600.646000", "113600.649000", "113640.585000", "113640.588000", "113640.591000", "113640.594000", "113640.597000", "113640.600000", "113640.602000", "113640.605000", "113640.608000", "113640.610000", "113640.613000", "113640.616000", "113640.619000", "113640.621000", "113640.624000", "113640.626000", "113640.629000", "113640.631000", "113640.633000", "113640.636000", "113720.584000", "113720.588000", "113720.593000", "113720.596000", "113720.599000", "113720.603000", "113720.606000", "113720.610000", "113720.613000", "113720.617000", "113720.620000", "113720.624000", "113720.627000", "113720.630000", "113720.634000", "113720.637000", "113720.640000", "113720.643000", "113720.646000", "113720.650000", "113724.659000", "113724.667000", "113724.672000"],
      "InstanceNumber": [1, 2, 3, 4, 5, 6, 7, 8, 9, 10, 11, 12, 13, 14, 15, 16, 17, 18, 19, 20, 21, 22, 23, 24, 25, 26, 27, 28, 29, 30, 31, 32, 33, 34, 35, 36, 37, 38, 39, 40, 41, 42, 43, 44, 45, 46, 47, 48, 49, 50, 51, 52, 53, 54, 55, 56, 57, 58, 59, 60, 61, 62, 63, 64, 65, 66, 67, 68, 69, 70, 71, 72, 73, 74, 75, 76, 77, 78, 79, 80, 81, 82, 83, 84, 85, 86, 87, 88, 89, 90, 91, 92, 93, 94, 95, 96, 97, 98, 99, 100, 101, 102, 103, 104, 105, 106, 107, 108, 109, 110, 111, 112, 113, 114, 115, 116, 117, 118, 119, 120, 121, 122, 123, 124, 125, 126, 127, 128, 129, 130, 131, 132, 133, 134, 135, 136, 137, 138, 139, 140, 141, 142, 143, 144, 145, 146, 147, 148, 149, 150, 151, 152, 153, 154, 155, 156, 157, 158, 159, 160, 161, 162, 163, 164, 165, 166, 167, 168, 169, 170, 171, 172, 173, 174, 175, 176, 177, 178, 179, 180, 181, 182, 183, 184, 185, 186, 187, 188, 189, 190, 191, 192, 193, 194, 195, 196, 197, 198, 199, 200, 201, 202, 203, 204, 205, 206, 207, 208, 209, 210, 211, 212, 213, 214, 215, 216, 217, 218, 219, 220, 221, 222, 223, 224, 225, 226, 227, 228, 229, 230, 231, 232, 233, 234, 235, 236, 237],
      "LargestImagePixelValue": [2172, 1868, 2373, 2762, 1764, 1847, 1683, 2240, 2361, 1699, 1888, 2373, 1686, 2007, 1685, 2127, 2677, 1777, 2215, 1913, 1684, 2428, 2013, 1783, 2188, 1966, 1751, 2093, 2612, 1887, 1842, 2495, 1707, 2046, 2510, 1721, 1725, 2459, 1780, 1706, 2049, 2561, 1786, 1929, 2562, 1733, 1674, 2155, 2057, 1871, 1882, 2488, 1694, 2293, 2716, 1694, 1693, 2262, 1683, 2141, 2524, 1697, 1900, 2515, 1733, 1860, 1938, 1686, 2282, 1682, 1919, 2495, 1719, 2220, 1695, 1809, 2359, 1774, 2172, 1682, 2050, 2333, 1796, 1936, 2412, 1695, 2260, 2072, 1691, 1805, 2067, 2452, 1681, 1679, 1684, 2424, 1708, 1750, 2304, 1686, 1687, 1968, 2623, 2326, 1904, 1706, 2345, 1683, 1687, 2404, 2361, 1686, 2018, 2285, 1708, 2105, 2346, 1845, 2335, 1697, 1706, 2514, 1783, 1986, 1695, 1879, 2315, 1687, 2392, 1753, 1699, 2380, 1703, 2358, 1701, 2140, 1762, 1683, 2452, 1696, 2057, 1707, 1968, 2560, 1744, 1714, 2063, 1745, 1724, 2523, 1720, 1755, 2255, 1715, 2079, 2308, 1688, 1731, 1722, 2409, 1746, 1691, 2286, 2581, 1732, 1696, 2359, 2474, 1731, 1804, 2183, 1695, 1877, 2568, 1696, 1689, 2077, 1684, 2018, 2355, 1731, 1864, 2433, 1727, 2253, 1820, 1690, 2362, 1693, 2207, 2075, 1748, 2346, 1693, 1696, 2656, 1721, 1755, 2066, 1804, 2376, 1873, 1808, 2525, 1720, 1707, 2504, 1831, 1719, 2291, 1695, 1792, 2340, 1878, 1801, 2465, 1701, 2101, 1759, 1772, 2670, 1707, 2035, 1700, 1703, 2566, 1851, 1862, 1700, 1707, 2396, 2081, 1738, 1727, 1692, 2184, 2316],
      "WindowCenter": [693.0, 689.0, 690.0, 690.0, 687.0, 688.0, 687.0, 689.0, 690.0, 687.0, 688.0, 690.0, 687.0, 689.0, 687.0, 689.0, 690.0, 687.0, 688.0, 687.0, 686.0, 688.0, 687.0, 687.0, 689.0, 689.0, 687.0, 688.0, 690.0, 688.0, 688.0, 690.0, 687.0, 688.0, 689.0, 687.0, 687.0, 689.0, 687.0, 687.0, 689.0, 690.0, 687.0, 687.0, 690.0, 687.0, 686.0, 688.0, 688.0, 688.0, 689.0, 691.0, 688.0, 689.0, 690.0, 686.0, 686.0, 690.0, 687.0, 688.0, 689.0, 686.0, 687.0, 690.0, 687.0, 686.0, 687.0, 687.0, 690.0, 687.0, 688.0, 690.0, 687.0, 688.0, 687.0, 687.0, 689.0, 687.0, 688.0, 686.0, 688.0, 689.0, 687.0, 688.0, 690.0, 686.0, 689.0, 688.0, 686.0, 687.0, 688.0, 689.0, 686.0, 686.0, 687.0, 690.0, 688.0, 686.0, 689.0, 687.0, 688.0, 689.0, 690.0, 688.0, 687.0, 687.0, 689.0, 687.0, 687.0, 689.0, 688.0, 686.0, 689.0, 689.0, 686.0, 688.0, 689.0, 686.0, 689.0, 687.0, 686.0, 689.0, 687.0, 688.0, 686.0, 687.0, 689.0, 686.0, 689.0, 686.0, 686.0, 690.0, 687.0, 689.0, 686.0, 688.0, 686.0, 686.0, 690.0, 687.0, 689.0, 686.0, 687.0, 689.0, 686.0, 685.0, 687.0, 687.0, 687.0, 690.0, 687.0, 687.0, 689.0, 687.0, 688.0, 688.0, 686.0, 687.0, 687.0, 689.0, 688.0, 688.0, 690.0, 690.0, 687.0, 687.0, 690.0, 690.0, 687.0, 687.0, 689.0, 687.0, 688.0, 690.0, 686.0, 687.0, 688.0, 687.0, 689.0, 689.0, 686.0, 687.0, 690.0, 687.0, 689.0, 687.0, 687.0, 690.0, 687.0, 688.0, 688.0, 686.0, 688.0, 687.0, 687.0, 691.0, 686.0, 686.0, 689.0, 689.0, 691.0, 688.0, 687.0, 689.0, 686.0, 685.0, 689.0, 687.0, 687.0, 690.0, 687.0, 687.0, 690.0, 689.0, 689.0, 691.0, 687.0, 689.0, 688.0, 688.0, 690.0, 687.0, 688.0, 687.0, 686.0, 689.0, 688.0, 688.0, 687.0, 688.0, 691.0, 689.0, 687.0, 687.0, 687.0, 690.0, 691.0],
      "WindowWidth": [1532.0, 1521.0, 1522.0, 1523.0, 1512.0, 1515.0, 1513.0, 1521.0, 1522.0, 1512.0, 1515.0, 1522.0, 1513.0, 1518.0, 1514.0, 1519.0, 1524.0, 1512.0, 1518.0, 1514.0, 1510.0, 1518.0, 1514.0, 1514.0, 1522.0, 1518.0, 1513.0, 1517.0, 1523.0, 1516.0, 1515.0, 1524.0, 1512.0, 1516.0, 1521.0, 1513.0, 1512.0, 1520.0, 1514.0, 1515.0, 1518.0, 1524.0, 1512.0, 1513.0, 1522.0, 1512.0, 1510.0, 1517.0, 1518.0, 1516.0, 1518.0, 1526.0, 1515.0, 1520.0, 1523.0, 1510.0, 1511.0, 1522.0, 1513.0, 1517.0, 1520.0, 1512.0, 1514.0, 1523.0, 1513.0, 1512.0, 1515.0, 1513.0, 1522.0, 1514.0, 1516.0, 1524.0, 1513.0, 1518.0, 1513.0, 1515.0, 1521.0, 1513.0, 1518.0, 1511.0, 1517.0, 1520.0, 1514.0, 1517.0, 1522.0, 1512.0, 1518.0, 1516.0, 1512.0, 1515.0, 1516.0, 1520.0, 1509.0, 1512.0, 1514.0, 1524.0, 1515.0, 1512.0, 1520.0, 1513.0, 1516.0, 1519.0, 1524.0, 1518.0, 1513.0, 1512.0, 1521.0, 1513.0, 1514.0, 1521.0, 1519.0, 1511.0, 1518.0, 1519.0, 1512.0, 1517.0, 1519.0, 1512.0, 1520.0, 1512.0, 1510.0, 1522.0, 1514.0, 1518.0, 1512.0, 1514.0, 1520.0, 1512.0, 1521.0, 1512.0, 1512.0, 1523.0, 1514.0, 1521.0, 1511.0, 1516.0, 1512.0, 1512.0, 1524.0, 1514.0, 1518.0, 1511.0, 1515.0, 1522.0, 1510.0, 1508.0, 1515.0, 1515.0, 1514.0, 1524.0, 1513.0, 1514.0, 1521.0, 1513.0, 1516.0, 1519.0, 1512.0, 1514.0, 1513.0, 1521.0, 1516.0, 1516.0, 1522.0, 1523.0, 1513.0, 1514.0, 1523.0, 1523.0, 1512.0, 1515.0, 1521.0, 1515.0, 1516.0, 1523.0, 1511.0, 1512.0, 1519.0, 1515.0, 1519.0, 1521.0, 1512.0, 1514.0, 1524.0, 1513.0, 1520.0, 1514.0, 1513.0, 1522.0, 1514.0, 1518.0, 1518.0, 1510.0, 1518.0, 1512.0, 1514.0, 1525.0, 1511.0, 1511.0, 1519.0, 1520.0, 1525.0, 1516.0, 1512.0, 1521.0, 1511.0, 1509.0, 1521.0, 1513.0, 1513.0, 1522.0, 1513.0, 1514.0, 1524.0, 1521.0, 1520.0, 1527.0, 1514.0, 1521.0, 1516.0, 1515.0, 1524.0, 1512.0, 1517.0, 1513.0, 1511.0, 1522.0, 1516.0, 1516.0, 1515.0, 1518.0, 1526.0, 1520.0, 1514.0, 1514.0, 1515.0, 1522.0, 1524.0]
    },
    "slices": {}
  }
}