{
  "AcquisitionMatrixPE": 70,
  "AcquisitionNumber": 1,
  "AcquisitionTime": "10:27:40.442500",
  "BandwidthPerPixelPhaseEncode": 38.873,
  "BaseResolution": 70,
  "BodyPartExamined": "HEAD",
  "ConsistencyInfo": "N4_VE11B_LATEST_20150530",
  "ConversionSoftware": "dcm2niix",
  "ConversionSoftwareVersion": "v1.0.20190410  GCC6.3.0",
  "DerivedVendorReportedEchoSpacing": 0.000489996,
  "DeviceSerialNumber": "66088",
  "DwellTime": 2.9e-06,
  "EchoTime": 0.03,
  "EchoTrainLength": 53,
  "EffectiveEchoSpacing": 0.000367497,
  "FlipAngle": 90,
  "ImageOrientationPatientDICOM": [0.997123, 0.0266479, 0.0709666, 0.00870171, 0.88975, -0.456365],
  "ImageType": [
    "ORIGINAL",
    "PRIMARY",
    "M",
    "ND",
    "NORM",
    "MOSAIC"
],
  "ImagingFrequency": 123.191,
  "InPlanePhaseEncodingDirectionDICOM": "COL",
  "InstitutionAddress": "Street_StreetNo_City_District_IR_ZIP",
  "InstitutionName": "NBML",
  "InstitutionalDepartmentName": "Department",
  "MRAcquisitionType": "2D",
  "MagneticFieldStrength": 3,
  "Manufacturer": "Siemens",
  "ManufacturersModelName": "Prisma",
  "Modality": "MR",
  "ParallelReductionFactorInPlane": 2,
  "PartialFourier": 1,
  "PatientPosition": "HFS",
  "PercentPhaseFOV": 100,
  "PhaseEncodingDirection": "j-",
  "PhaseEncodingSteps": 105,
  "PhaseOversampling": 0.5,
  "PhaseResolution": 1,
  "PixelBandwidth": 2465,
  "ProcedureStepDescription": "NBML_Project_Dr_Khaligh",
  "ProtocolName": "ep2d_p2_Task_3.5_measurment:237",
  "PulseSequenceDetails": "%SiemensSeq%_ep2d_pace",
  "ReceiveCoilActiveElements": "HC1-7;NC1",
  "ReceiveCoilName": "HeadNeck_64",
  "ReconMatrixPE": 70,
  "RefLinesPE": 24,
  "RepetitionTime": 2,
  "SAR": 0.0809912,
  "ScanOptions": "FS",
  "ScanningSequence": "EP",
  "SequenceName": "_epfid2d1_70",
  "SequenceVariant": "SK_OSP",
  "SeriesDescription": "ep2d_p2_Task_3.5_measurment:237",
  "SeriesNumber": 3,
  "ShimSetting": [2605, -4468, -3213, 359, -97, -39, -99, -2],
  "SliceThickness": 3.5,
  "SliceTiming": [0.99, 0, 1.0475, 0.06, 1.1075, 0.1175, 1.165, 0.175, 1.2225, 0.2325, 1.2825, 0.2925, 1.34, 0.35, 1.3975, 0.4075, 1.4575, 0.4675, 1.515, 0.525, 1.5725, 0.5825, 1.63, 0.64, 1.69, 0.7, 1.7475, 0.7575, 1.805, 0.815, 1.865, 0.875, 1.9225, 0.9325],
  "SoftwareVersions": "syngo_MR_E11",
  "SpacingBetweenSlices": 3.85,
  "StationName": "AWP66088",
  "TaskName": "categorySelectivity",
  "TotalReadoutTime": 0.0253573,
  "TxRefAmp": 228.389,
  "dcmmeta_affine": [
    [-3.532663106918335, 0.0308289285749197, 0.289919376373291, 118.12877655029297],
    [-0.09440983831882477, 3.1522574424743652, -1.754327416419983, -74.53201293945312],
    [0.2514245808124542, 1.6168361902236938, 3.4147887229919434, -97.92529296875],
    [0.0, 0.0, 0.0, 1.0]
],
  "dcmmeta_reorient_transform": [
    [0.0, -1.0, 0.0, 69.0],
    [1.0, 0.0, 0.0, 0.0],
    [0.0, 0.0, 1.0, 0.0],
    [0.0, 0.0, 0.0, 1.0]
],
  "dcmmeta_shape": [70, 70, 34, 237],
  "dcmmeta_slice_dim": 2,
  "dcmmeta_version": 0.6,
  "global": {
    "const": {
      "AccessionNumber": "97-06-15 MB",
      "AcquisitionMatrix": [70, 0, 0, 70],
      "AngioFlag": "N",
      "BitsAllocated": 16,
      "BitsStored": 12,
      "BodyPartExamined": "HEAD",
      "Columns": 420,
      "EchoNumbers": 1,
      "EchoTime": 30.0,
      "EchoTrainLength": 53,
      "FlipAngle": 90.0,
      "HighBit": 11,
      "ImageOrientationPatient": [0.99712267420458, 0.02664793776444, 0.07096661186792, 0.00870171358327, 0.889750091982, -0.4563650446723],
      "ImagePositionPatient": [-743.86709889624, -711.14054007082, 252.58343251909],
      "ImageType": [
        "ORIGINAL",
        "PRIMARY",
        "M",
        "ND",
        "NORM",
        "MOSAIC"
],
      "ImagedNucleus": "1H",
      "ImagingFrequency": 123.191142,
      "InPlanePhaseEncodingDirection": "COL",
      "MRAcquisitionType": "2D",
      "MagneticFieldStrength": 3.0,
      "Manufacturer": "SIEMENS",
      "ManufacturerModelName": "Prisma",
      "Modality": "MR",
      "NumberOfAverages": 1.0,
      "NumberOfPhaseEncodingSteps": 105,
      "PercentPhaseFieldOfView": 100.0,
      "PercentSampling": 100.0,
      "PerformedProcedureStepStartTime": "101241.248000",
      "PhotometricInterpretation": "MONOCHROME2",
      "PixelBandwidth": 2465.0,
      "PixelRepresentation": 0,
      "PixelSpacing": [3.542857170105, 3.542857170105],
      "ProtocolName": "ep2d_p2_Task_3.5_measurment:237",
      "RepetitionTime": 2000.0,
      "Rows": 420,
      "SAR": 0.08099119633908,
      "SamplesPerPixel": 1,
      "ScanOptions": "FS",
      "ScanningSequence": "EP",
      "SequenceName": "*epfid2d1_70",
      "SequenceVariant": [
        "SK",
        "OSP"
],
      "SeriesDescription": "ep2d_p2_Task_3.5_measurment:237",
      "SeriesNumber": 3,
      "SeriesTime": "102832.139000",
      "SliceLocation": -43.998133652623,
      "SliceThickness": 3.5,
      "SmallestImagePixelValue": 0,
      "SoftwareVersions": "syngo MR E11",
      "SpacingBetweenSlices": 3.8500000342037,
      "SpecificCharacterSet": "ISO_IR 100",
      "StudyID": "1",
      "StudyTime": "101241.199000",
      "TransmitCoilName": "Body",
      "VariableFlipAngleFlag": "N",
      "WindowCenterWidthExplanation": "Algo1",
      "dBdt": 0.0},
    "slices": {}
  },
  "time": {
    "samples": {
      "AcquisitionNumber": [1, 2, 3, 4, 5, 6, 7, 8, 9, 10, 11, 12, 13, 14, 15, 16, 17, 18, 19, 20, 21, 22, 23, 24, 25, 26, 27, 28, 29, 30, 31, 32, 33, 34, 35, 36, 37, 38, 39, 40, 41, 42, 43, 44, 45, 46, 47, 48, 49, 50, 51, 52, 53, 54, 55, 56, 57, 58, 59, 60, 61, 62, 63, 64, 65, 66, 67, 68, 69, 70, 71, 72, 73, 74, 75, 76, 77, 78, 79, 80, 81, 82, 83, 84, 85, 86, 87, 88, 89, 90, 91, 92, 93, 94, 95, 96, 97, 98, 99, 100, 101, 102, 103, 104, 105, 106, 107, 108, 109, 110, 111, 112, 113, 114, 115, 116, 117, 118, 119, 120, 121, 122, 123, 124, 125, 126, 127, 128, 129, 130, 131, 132, 133, 134, 135, 136, 137, 138, 139, 140, 141, 142, 143, 144, 145, 146, 147, 148, 149, 150, 151, 152, 153, 154, 155, 156, 157, 158, 159, 160, 161, 162, 163, 164, 165, 166, 167, 168, 169, 170, 171, 172, 173, 174, 175, 176, 177, 178, 179, 180, 181, 182, 183, 184, 185, 186, 187, 188, 189, 190, 191, 192, 193, 194, 195, 196, 197, 198, 199, 200, 201, 202, 203, 204, 205, 206, 207, 208, 209, 210, 211, 212, 213, 214, 215, 216, 217, 218, 219, 220, 221, 222, 223, 224, 225, 226, 227, 228, 229, 230, 231, 232, 233, 234, 235, 236, 237],
      "AcquisitionTime": ["102740.442500", "102742.442500", "102744.442500", "102746.442500", "102748.442500", "102750.442500", "102752.442500", "102754.442500", "102756.442500", "102758.442500", "102800.442500", "102802.442500", "102804.442500", "102806.442500", "102808.442500", "102810.442500", "102812.442500", "102814.442500", "102816.442500", "102818.442500", "102820.442500", "102822.442500", "102824.442500", "102826.442500", "102828.442500", "102830.442500", "102832.442500", "102834.442500", "102836.442500", "102838.442500", "102840.442500", "102842.442500", "102844.442500", "102846.442500", "102848.442500", "102850.442500", "102852.442500", "102854.442500", "102856.442500", "102858.442500", "102900.442500", "102902.442500", "102904.442500", "102906.442500", "102908.442500", "102910.442500", "102912.442500", "102914.442500", "102916.442500", "102918.442500", "102920.442500", "102922.442500", "102924.442500", "102926.442500", "102928.442500", "102930.442500", "102932.442500", "102934.442500", "102936.442500", "102938.442500", "102940.442500", "102942.442500", "102944.442500", "102946.442500", "102948.442500", "102950.442500", "102952.442500", "102954.442500", "102956.442500", "102958.442500", "103000.442500", "103002.442500", "103004.442500", "103006.442500", "103008.442500", "103010.442500", "103012.442500", "103014.442500", "103016.442500", "103018.442500", "103020.442500", "103022.442500", "103024.442500", "103026.442500", "103028.442500", "103030.442500", "103032.442500", "103034.442500", "103036.442500", "103038.442500", "103040.442500", "103042.442500", "103044.442500", "103046.442500", "103048.442500", "103050.442500", "103052.442500", "103054.442500", "103056.442500", "103058.442500", "103100.442500", "103102.442500", "103104.442500", "103106.442500", "103108.442500", "103110.442500", "103112.442500", "103114.442500", "103116.442500", "103118.442500", "103120.442500", "103122.442500", "103124.442500", "103126.442500", "103128.442500", "103130.442500", "103132.442500", "103134.442500", "103136.442500", "103138.442500", "103140.442500", "103142.442500", "103144.442500", "103146.442500", "103148.442500", "103150.442500", "103152.442500", "103154.442500", "103156.442500", "103158.442500", "103200.442500", "103202.442500", "103204.442500", "103206.442500", "103208.442500", "103210.442500", "103212.442500", "103214.442500", "103216.442500", "103218.442500", "103220.442500", "103222.442500", "103224.442500", "103226.442500", "103228.442500", "103230.442500", "103232.442500", "103234.442500", "103236.442500", "103238.442500", "103240.442500", "103242.442500", "103244.442500", "103246.442500", "103248.442500", "103250.442500", "103252.442500", "103254.442500", "103256.442500", "103258.442500", "103300.442500", "103302.442500", "103304.442500", "103306.442500", "103308.442500", "103310.442500", "103312.442500", "103314.442500", "103316.442500", "103318.442500", "103320.442500", "103322.442500", "103324.442500", "103326.442500", "103328.442500", "103330.442500", "103332.442500", "103334.442500", "103336.442500", "103338.442500", "103340.442500", "103342.442500", "103344.442500", "103346.442500", "103348.442500", "103350.442500", "103352.442500", "103354.442500", "103356.442500", "103358.442500", "103400.442500", "103402.442500", "103404.442500", "103406.442500", "103408.442500", "103410.442500", "103412.442500", "103414.442500", "103416.442500", "103418.442500", "103420.442500", "103422.442500", "103424.442500", "103426.442500", "103428.442500", "103430.442500", "103432.442500", "103434.442500", "103436.442500", "103438.442500", "103440.442500", "103442.442500", "103444.442500", "103446.442500", "103448.442500", "103450.442500", "103452.442500", "103454.442500", "103456.442500", "103458.442500", "103500.442500", "103502.442500", "103504.442500", "103506.442500", "103508.442500", "103510.442500", "103512.442500", "103514.442500", "103516.442500", "103518.442500", "103520.442500", "103522.442500", "103524.442500", "103526.442500", "103528.442500", "103530.442500", "103532.442500"],
      "ContentTime": ["102832.144000", "102832.148000", "102832.151000", "102832.155000", "102832.158000", "102832.161000", "102832.165000", "102832.168000", "102832.171000", "102832.180000", "102832.183000", "102832.186000", "102832.190000", "102832.193000", "102832.197000", "102832.201000", "102832.204000", "102832.207000", "102832.211000", "102832.214000", "102832.217000", "102832.221000", "102832.224000", "102832.227000", "102832.231000", "102832.234000", "102912.136000", "102912.139000", "102912.142000", "102912.144000", "102912.147000", "102912.150000", "102912.152000", "102912.155000", "102912.157000", "102912.160000", "102912.163000", "102912.165000", "102912.168000", "102912.170000", "102912.173000", "102912.175000", "102912.178000", "102912.181000", "102912.183000", "102912.186000", "102952.136000", "102952.139000", "102952.141000", "102952.144000", "102952.147000", "102952.149000", "102952.152000", "102952.155000", "102952.157000", "102952.160000", "102952.163000", "102952.165000", "102952.168000", "102952.170000", "102952.173000", "102952.176000", "102952.178000", "102952.181000", "102952.183000", "102952.186000", "103032.136000", "103032.139000", "103032.142000", "103032.146000", "103032.149000", "103032.152000", "103032.155000", "103032.159000", "103032.162000", "103032.165000", "103032.168000", "103032.171000", "103032.175000", "103032.178000", "103032.181000", "103032.184000", "103032.187000", "103032.191000", "103032.194000", "103032.197000", "103112.137000", "103112.141000", "103112.145000", "103112.148000", "103112.151000", "103112.155000", "103112.158000", "103112.161000", "103112.164000", "103112.168000", "103112.171000", "103112.174000", "103112.190000", "103112.193000", "103112.196000", "103112.204000", "103112.207000", "103112.210000", "103112.214000", "103112.217000", "103152.136000", "103152.139000", "103152.141000", "103152.144000", "103152.147000", "103152.149000", "103152.152000", "103152.155000", "103152.157000", "103152.160000", "103152.163000", "103152.165000", "103152.168000", "103152.171000", "103152.174000", "103152.176000", "103152.179000", "103152.181000", "103152.184000", "103152.187000", "103232.136000", "103232.140000", "103232.143000", "103232.146000", "103232.149000", "103232.153000", "103232.156000", "103232.159000", "103232.163000", "103232.166000", "103232.169000", "103232.172000", "103232.176000", "103232.179000", "103232.183000", "103232.186000", "103232.189000", "103232.192000", "103232.196000", "103232.199000", "103312.136000", "103312.140000", "103312.143000", "103312.146000", "103312.149000", "103312.153000", "103312.156000", "103312.160000", "103312.163000", "103312.166000", "103312.170000", "103312.173000", "103312.176000", "103312.180000", "103312.183000", "103312.187000", "103312.190000", "103312.193000", "103312.196000", "103312.200000", "103352.136000", "103352.139000", "103352.141000", "103352.144000", "103352.146000", "103352.149000", "103352.152000", "103352.154000", "103352.157000", "103352.160000", "103352.163000", "103352.165000", "103352.168000", "103352.170000", "103352.173000", "103352.176000", "103352.178000", "103352.181000", "103352.183000", "103352.186000", "103432.136000", "103432.140000", "103432.143000", "103432.146000", "103432.149000", "103432.153000", "103432.156000", "103432.159000", "103432.162000", "103432.166000", "103432.169000", "103432.172000", "103432.176000", "103432.179000", "103432.182000", "103432.186000", "103432.189000", "103432.192000", "103432.196000", "103432.199000", "103512.136000", "103512.140000", "103512.143000", "103512.147000", "103512.150000", "103512.153000", "103512.156000", "103512.160000", "103512.163000", "103512.166000", "103512.170000", "103512.173000", "103512.176000", "103512.179000", "103512.182000", "103512.186000", "103512.189000", "103512.192000", "103512.195000", "103512.199000", "103533.795000", "103533.799000", "103533.802000", "103533.806000", "103533.809000", "103533.812000", "103533.816000", "103533.819000", "103533.823000", "103533.835000", "103533.838000"],
      "InstanceCreationTime": ["102832.144000", "102832.148000", "102832.151000", "102832.155000", "102832.158000", "102832.161000", "102832.165000", "102832.168000", "102832.171000", "102832.180000", "102832.183000", "102832.186000", "102832.190000", "102832.193000", "102832.197000", "102832.201000", "102832.204000", "102832.207000", "102832.211000", "102832.214000", "102832.217000", "102832.221000", "102832.224000", "102832.227000", "102832.231000", "102832.234000", "102912.136000", "102912.139000", "102912.142000", "102912.144000", "102912.147000", "102912.150000", "102912.152000", "102912.155000", "102912.157000", "102912.160000", "102912.163000", "102912.165000", "102912.168000", "102912.170000", "102912.173000", "102912.175000", "102912.178000", "102912.181000", "102912.183000", "102912.186000", "102952.136000", "102952.139000", "102952.141000", "102952.144000", "102952.147000", "102952.149000", "102952.152000", "102952.155000", "102952.157000", "102952.160000", "102952.163000", "102952.165000", "102952.168000", "102952.170000", "102952.173000", "102952.176000", "102952.178000", "102952.181000", "102952.183000", "102952.186000", "103032.136000", "103032.139000", "103032.142000", "103032.146000", "103032.149000", "103032.152000", "103032.155000", "103032.159000", "103032.162000", "103032.165000", "103032.168000", "103032.171000", "103032.175000", "103032.178000", "103032.181000", "103032.184000", "103032.187000", "103032.191000", "103032.194000", "103032.197000", "103112.137000", "103112.141000", "103112.145000", "103112.148000", "103112.151000", "103112.155000", "103112.158000", "103112.161000", "103112.164000", "103112.168000", "103112.171000", "103112.174000", "103112.190000", "103112.193000", "103112.196000", "103112.204000", "103112.207000", "103112.210000", "103112.214000", "103112.217000", "103152.136000", "103152.139000", "103152.141000", "103152.144000", "103152.147000", "103152.149000", "103152.152000", "103152.155000", "103152.157000", "103152.160000", "103152.163000", "103152.165000", "103152.168000", "103152.171000", "103152.174000", "103152.176000", "103152.179000", "103152.181000", "103152.184000", "103152.187000", "103232.136000", "103232.140000", "103232.143000", "103232.146000", "103232.149000", "103232.153000", "103232.156000", "103232.159000", "103232.163000", "103232.166000", "103232.169000", "103232.172000", "103232.176000", "103232.179000", "103232.183000", "103232.186000", "103232.189000", "103232.192000", "103232.196000", "103232.199000", "103312.136000", "103312.140000", "103312.143000", "103312.146000", "103312.149000", "103312.153000", "103312.156000", "103312.160000", "103312.163000", "103312.166000", "103312.170000", "103312.173000", "103312.176000", "103312.180000", "103312.183000", "103312.187000", "103312.190000", "103312.193000", "103312.196000", "103312.200000", "103352.136000", "103352.139000", "103352.141000", "103352.144000", "103352.146000", "103352.149000", "103352.152000", "103352.154000", "103352.157000", "103352.160000", "103352.163000", "103352.165000", "103352.168000", "103352.170000", "103352.173000", "103352.176000", "103352.178000", "103352.181000", "103352.183000", "103352.186000", "103432.136000", "103432.140000", "103432.143000", "103432.146000", "103432.149000", "103432.153000", "103432.156000", "103432.159000", "103432.162000", "103432.166000", "103432.169000", "103432.172000", "103432.176000", "103432.179000", "103432.182000", "103432.186000", "103432.189000", "103432.192000", "103432.196000", "103432.199000", "103512.136000", "103512.140000", "103512.143000", "103512.147000", "103512.150000", "103512.153000", "103512.156000", "103512.160000", "103512.163000", "103512.166000", "103512.170000", "103512.173000", "103512.176000", "103512.179000", "103512.182000", "103512.186000", "103512.189000", "103512.192000", "103512.195000", "103512.199000", "103533.795000", "103533.799000", "103533.802000", "103533.806000", "103533.809000", "103533.812000", "103533.816000", "103533.819000", "103533.823000", "103533.835000", "103533.838000"],
      "InstanceNumber": [1, 2, 3, 4, 5, 6, 7, 8, 9, 10, 11, 12, 13, 14, 15, 16, 17, 18, 19, 20, 21, 22, 23, 24, 25, 26, 27, 28, 29, 30, 31, 32, 33, 34, 35, 36, 37, 38, 39, 40, 41, 42, 43, 44, 45, 46, 47, 48, 49, 50, 51, 52, 53, 54, 55, 56, 57, 58, 59, 60, 61, 62, 63, 64, 65, 66, 67, 68, 69, 70, 71, 72, 73, 74, 75, 76, 77, 78, 79, 80, 81, 82, 83, 84, 85, 86, 87, 88, 89, 90, 91, 92, 93, 94, 95, 96, 97, 98, 99, 100, 101, 102, 103, 104, 105, 106, 107, 108, 109, 110, 111, 112, 113, 114, 115, 116, 117, 118, 119, 120, 121, 122, 123, 124, 125, 126, 127, 128, 129, 130, 131, 132, 133, 134, 135, 136, 137, 138, 139, 140, 141, 142, 143, 144, 145, 146, 147, 148, 149, 150, 151, 152, 153, 154, 155, 156, 157, 158, 159, 160, 161, 162, 163, 164, 165, 166, 167, 168, 169, 170, 171, 172, 173, 174, 175, 176, 177, 178, 179, 180, 181, 182, 183, 184, 185, 186, 187, 188, 189, 190, 191, 192, 193, 194, 195, 196, 197, 198, 199, 200, 201, 202, 203, 204, 205, 206, 207, 208, 209, 210, 211, 212, 213, 214, 215, 216, 217, 218, 219, 220, 221, 222, 223, 224, 225, 226, 227, 228, 229, 230, 231, 232, 233, 234, 235, 236, 237],
      "LargestImagePixelValue": [1901, 1733, 1844, 2104, 2392, 1682, 1730, 1678, 2256, 1681, 1928, 2141, 2655, 1688, 1671, 2078, 2113, 1688, 2009, 2629, 1680, 1674, 2183, 2454, 1680, 1927, 2332, 2306, 1679, 1966, 2486, 1672, 2100, 2232, 2683, 1685, 1673, 2401, 1688, 1808, 2242, 2418, 1709, 1705, 2600, 1719, 1681, 2238, 2394, 1712, 1929, 2594, 1665, 1755, 2360, 2361, 1761, 1967, 2242, 2284, 1675, 2185, 2389, 1679, 2180, 2141, 1686, 2061, 1906, 2256, 1687, 1797, 2507, 1691, 1875, 2120, 1685, 1844, 2438, 1807, 1681, 2121, 2090, 1692, 1817, 1846, 1669, 2106, 2734, 1679, 1681, 2391, 1679, 1680, 2297, 2362, 1686, 1815, 2208, 2023, 1686, 1894, 2482, 1689, 1681, 2147, 1680, 1857, 2113, 2592, 1689, 1681, 2340, 2435, 1682, 2147, 2235, 1684, 2238, 2346, 1688, 1684, 1680, 2350, 1726, 1843, 1997, 2534, 1691, 1684, 2141, 2403, 1698, 1694, 1841, 2302, 1683, 2013, 2655, 1690, 1754, 2656, 2309, 1691, 1722, 2262, 1692, 2065, 2049, 2276, 1694, 1691, 1779, 2147, 1684, 2069, 2664, 1689, 1723, 2589, 1723, 1692, 2036, 2128, 1683, 2116, 2408, 2329, 1687, 1680, 2303, 1687, 2217, 2170, 1685, 1697, 2147, 2220, 1693, 2042, 1711, 2279, 1699, 1773, 2027, 2492, 1693, 1791, 2594, 1689, 1752, 2512, 1688, 1676, 2324, 2245, 1687, 1912, 2543, 1712, 1793, 2704, 1692, 1682, 2015, 1691, 1692, 2601, 1965, 1677, 2475, 2106, 1680, 2451, 2449, 1762, 1802, 2235, 1677, 2259, 2122, 1688, 1684, 1786, 2626, 1699, 1696, 2180, 1810, 1690, 1705, 2492, 1740, 1879, 2573, 1691, 1972],
      "WindowCenter": [692.0, 691.0, 691.0, 692.0, 693.0, 690.0, 690.0, 690.0, 693.0, 690.0, 691.0, 691.0, 693.0, 689.0, 689.0, 691.0, 692.0, 690.0, 690.0, 692.0, 689.0, 690.0, 692.0, 693.0, 690.0, 691.0, 692.0, 692.0, 690.0, 691.0, 693.0, 690.0, 691.0, 691.0, 692.0, 688.0, 689.0, 693.0, 690.0, 689.0, 691.0, 692.0, 690.0, 690.0, 693.0, 690.0, 690.0, 692.0, 693.0, 690.0, 691.0, 693.0, 690.0, 690.0, 691.0, 691.0, 690.0, 691.0, 691.0, 692.0, 690.0, 692.0, 693.0, 689.0, 691.0, 691.0, 689.0, 690.0, 689.0, 691.0, 690.0, 690.0, 692.0, 689.0, 690.0, 691.0, 689.0, 691.0, 692.0, 689.0, 689.0, 691.0, 690.0, 688.0, 689.0, 689.0, 690.0, 691.0, 693.0, 689.0, 689.0, 692.0, 689.0, 690.0, 691.0, 691.0, 689.0, 690.0, 692.0, 691.0, 689.0, 690.0, 692.0, 689.0, 689.0, 692.0, 690.0, 691.0, 691.0, 692.0, 689.0, 690.0, 692.0, 692.0, 689.0, 691.0, 692.0, 690.0, 691.0, 691.0, 688.0, 689.0, 689.0, 692.0, 689.0, 690.0, 689.0, 692.0, 689.0, 688.0, 691.0, 692.0, 689.0, 689.0, 689.0, 692.0, 690.0, 691.0, 692.0, 689.0, 690.0, 692.0, 691.0, 688.0, 689.0, 692.0, 690.0, 691.0, 690.0, 690.0, 689.0, 690.0, 690.0, 692.0, 689.0, 691.0, 693.0, 690.0, 689.0, 692.0, 688.0, 688.0, 690.0, 691.0, 689.0, 691.0, 691.0, 691.0, 689.0, 689.0, 691.0, 689.0, 691.0, 691.0, 689.0, 689.0, 691.0, 692.0, 688.0, 689.0, 688.0, 690.0, 689.0, 689.0, 691.0, 692.0, 689.0, 690.0, 692.0, 689.0, 689.0, 691.0, 689.0, 689.0, 692.0, 691.0, 688.0, 689.0, 692.0, 689.0, 690.0, 692.0, 688.0, 688.0, 690.0, 690.0, 690.0, 693.0, 691.0, 689.0, 692.0, 690.0, 689.0, 691.0, 690.0, 688.0, 690.0, 692.0, 689.0, 690.0, 690.0, 688.0, 689.0, 690.0, 692.0, 689.0, 688.0, 691.0, 690.0, 689.0, 689.0, 692.0, 689.0, 691.0, 693.0, 689.0, 690.0],
      "WindowWidth": [1530.0, 1526.0, 1528.0, 1530.0, 1534.0, 1525.0, 1524.0, 1524.0, 1534.0, 1526.0, 1529.0, 1529.0, 1533.0, 1522.0, 1522.0, 1529.0, 1530.0, 1523.0, 1525.0, 1530.0, 1521.0, 1523.0, 1531.0, 1533.0, 1523.0, 1527.0, 1531.0, 1531.0, 1523.0, 1528.0, 1534.0, 1523.0, 1528.0, 1528.0, 1531.0, 1519.0, 1520.0, 1533.0, 1523.0, 1522.0, 1528.0, 1530.0, 1523.0, 1524.0, 1534.0, 1524.0, 1524.0, 1532.0, 1534.0, 1525.0, 1527.0, 1534.0, 1524.0, 1524.0, 1529.0, 1530.0, 1525.0, 1527.0, 1529.0, 1529.0, 1522.0, 1531.0, 1533.0, 1521.0, 1526.0, 1527.0, 1522.0, 1524.0, 1521.0, 1528.0, 1525.0, 1524.0, 1531.0, 1521.0, 1524.0, 1527.0, 1522.0, 1526.0, 1531.0, 1522.0, 1521.0, 1527.0, 1526.0, 1518.0, 1521.0, 1523.0, 1523.0, 1529.0, 1534.0, 1521.0, 1521.0, 1530.0, 1522.0, 1523.0, 1528.0, 1529.0, 1519.0, 1524.0, 1529.0, 1527.0, 1521.0, 1523.0, 1530.0, 1520.0, 1522.0, 1530.0, 1524.0, 1526.0, 1527.0, 1531.0, 1520.0, 1522.0, 1530.0, 1531.0, 1520.0, 1526.0, 1530.0, 1523.0, 1528.0, 1526.0, 1517.0, 1519.0, 1522.0, 1532.0, 1522.0, 1522.0, 1523.0, 1530.0, 1520.0, 1519.0, 1526.0, 1531.0, 1520.0, 1519.0, 1522.0, 1531.0, 1523.0, 1526.0, 1533.0, 1522.0, 1524.0, 1532.0, 1527.0, 1518.0, 1521.0, 1530.0, 1523.0, 1527.0, 1523.0, 1526.0, 1521.0, 1524.0, 1524.0, 1531.0, 1522.0, 1527.0, 1534.0, 1522.0, 1522.0, 1532.0, 1518.0, 1518.0, 1523.0, 1526.0, 1522.0, 1527.0, 1528.0, 1526.0, 1519.0, 1521.0, 1529.0, 1521.0, 1528.0, 1526.0, 1521.0, 1522.0, 1529.0, 1530.0, 1519.0, 1522.0, 1517.0, 1526.0, 1520.0, 1522.0, 1526.0, 1532.0, 1521.0, 1523.0, 1531.0, 1520.0, 1521.0, 1528.0, 1519.0, 1520.0, 1531.0, 1529.0, 1518.0, 1521.0, 1530.0, 1522.0, 1523.0, 1531.0, 1518.0, 1518.0, 1524.0, 1524.0, 1525.0, 1533.0, 1526.0, 1521.0, 1531.0, 1525.0, 1520.0, 1528.0, 1527.0, 1519.0, 1523.0, 1531.0, 1521.0, 1525.0, 1523.0, 1519.0, 1521.0, 1523.0, 1531.0, 1519.0, 1520.0, 1527.0, 1522.0, 1520.0, 1520.0, 1531.0, 1523.0, 1527.0, 1533.0, 1521.0, 1523.0]
    },
    "slices": {}
  }
}