{
  "AcquisitionMatrixPE": 70,
  "AcquisitionNumber": 1,
  "AcquisitionTime": "10:53:34.572500",
  "BandwidthPerPixelPhaseEncode": 38.873,
  "BaseResolution": 70,
  "BodyPartExamined": "HEAD",
  "ConsistencyInfo": "N4_VE11B_LATEST_20150530",
  "ConversionSoftware": "dcm2niix",
  "ConversionSoftwareVersion": "v1.0.20190410  GCC6.3.0",
  "DerivedVendorReportedEchoSpacing": 0.000489996,
  "DeviceSerialNumber": "66088",
  "DwellTime": 2.9e-06,
  "EchoTime": 0.03,
  "EchoTrainLength": 53,
  "EffectiveEchoSpacing": 0.000367497,
  "FlipAngle": 90,
  "ImageOrientationPatientDICOM": [0.997123, 0.0266479, 0.0709666, 0.00870171, 0.88975, -0.456365],
  "ImageType": [
    "ORIGINAL",
    "PRIMARY",
    "M",
    "ND",
    "NORM",
    "MOSAIC"
],
  "ImagingFrequency": 123.191,
  "InPlanePhaseEncodingDirectionDICOM": "COL",
  "InstitutionAddress": "Street_StreetNo_City_District_IR_ZIP",
  "InstitutionName": "NBML",
  "InstitutionalDepartmentName": "Department",
  "MRAcquisitionType": "2D",
  "MagneticFieldStrength": 3,
  "Manufacturer": "Siemens",
  "ManufacturersModelName": "Prisma",
  "Modality": "MR",
  "ParallelReductionFactorInPlane": 2,
  "PartialFourier": 1,
  "PatientPosition": "HFS",
  "PercentPhaseFOV": 100,
  "PhaseEncodingDirection": "j-",
  "PhaseEncodingSteps": 105,
  "PhaseOversampling": 0.5,
  "PhaseResolution": 1,
  "PixelBandwidth": 2465,
  "ProcedureStepDescription": "NBML_Project_Dr_Khaligh",
  "ProtocolName": "ep2d_p2_Task_3.5_measurment:237",
  "PulseSequenceDetails": "%SiemensSeq%_ep2d_pace",
  "ReceiveCoilActiveElements": "HC1-7;NC1",
  "ReceiveCoilName": "HeadNeck_64",
  "ReconMatrixPE": 70,
  "RefLinesPE": 24,
  "RepetitionTime": 2,
  "SAR": 0.0809912,
  "ScanOptions": "FS",
  "ScanningSequence": "EP",
  "SequenceName": "_epfid2d1_70",
  "SequenceVariant": "SK_OSP",
  "SeriesDescription": "ep2d_p2_Task_3.5_measurment:237",
  "SeriesNumber": 6,
  "ShimSetting": [2605, -4468, -3213, 359, -97, -39, -99, -2],
  "SliceThickness": 3.5,
  "SliceTiming": [0.99, 0, 1.05, 0.06, 1.1075, 0.1175, 1.165, 0.175, 1.2225, 0.2325, 1.2825, 0.2925, 1.34, 0.35, 1.3975, 0.4075, 1.4575, 0.4675, 1.515, 0.525, 1.5725, 0.5825, 1.63, 0.6425, 1.69, 0.7, 1.7475, 0.7575, 1.805, 0.815, 1.865, 0.875, 1.9225, 0.9325],
  "SoftwareVersions": "syngo_MR_E11",
  "SpacingBetweenSlices": 3.85,
  "StationName": "AWP66088",
  "TaskName": "categorySelectivity",
  "TotalReadoutTime": 0.0253573,
  "TxRefAmp": 228.389,
  "dcmmeta_affine": [
    [-3.532663106918335, 0.0308289285749197, 0.289919376373291, 118.12877655029297],
    [-0.09440983831882477, 3.1522574424743652, -1.754327416419983, -74.53201293945312],
    [0.2514245808124542, 1.6168361902236938, 3.4147887229919434, -97.92529296875],
    [0.0, 0.0, 0.0, 1.0]
],
  "dcmmeta_reorient_transform": [
    [0.0, -1.0, 0.0, 69.0],
    [1.0, 0.0, 0.0, 0.0],
    [0.0, 0.0, 1.0, 0.0],
    [0.0, 0.0, 0.0, 1.0]
],
  "dcmmeta_shape": [70, 70, 34, 237],
  "dcmmeta_slice_dim": 2,
  "dcmmeta_version": 0.6,
  "global": {
    "const": {
      "AccessionNumber": "97-06-15 MB",
      "AcquisitionMatrix": [70, 0, 0, 70],
      "AngioFlag": "N",
      "BitsAllocated": 16,
      "BitsStored": 12,
      "BodyPartExamined": "HEAD",
      "Columns": 420,
      "EchoNumbers": 1,
      "EchoTime": 30.0,
      "EchoTrainLength": 53,
      "FlipAngle": 90.0,
      "HighBit": 11,
      "ImageOrientationPatient": [0.99712267420458, 0.02664793776444, 0.07096661186792, 0.00870171358327, 0.889750091982, -0.4563650446723],
      "ImagePositionPatient": [-743.86709889624, -711.14054007082, 252.58343251909],
      "ImageType": [
        "ORIGINAL",
        "PRIMARY",
        "M",
        "ND",
        "NORM",
        "MOSAIC"
],
      "ImagedNucleus": "1H",
      "ImagingFrequency": 123.191148,
      "InPlanePhaseEncodingDirection": "COL",
      "MRAcquisitionType": "2D",
      "MagneticFieldStrength": 3.0,
      "Manufacturer": "SIEMENS",
      "ManufacturerModelName": "Prisma",
      "Modality": "MR",
      "NumberOfAverages": 1.0,
      "NumberOfPhaseEncodingSteps": 105,
      "PercentPhaseFieldOfView": 100.0,
      "PercentSampling": 100.0,
      "PerformedProcedureStepStartTime": "101241.248000",
      "PhotometricInterpretation": "MONOCHROME2",
      "PixelBandwidth": 2465.0,
      "PixelRepresentation": 0,
      "PixelSpacing": [3.542857170105, 3.542857170105],
      "ProtocolName": "ep2d_p2_Task_3.5_measurment:237",
      "RepetitionTime": 2000.0,
      "Rows": 420,
      "SAR": 0.08099119633908,
      "SamplesPerPixel": 1,
      "ScanOptions": "FS",
      "ScanningSequence": "EP",
      "SequenceName": "*epfid2d1_70",
      "SequenceVariant": [
        "SK",
        "OSP"
],
      "SeriesDescription": "ep2d_p2_Task_3.5_measurment:237",
      "SeriesNumber": 6,
      "SeriesTime": "105432.137000",
      "SliceLocation": -43.998133652623,
      "SliceThickness": 3.5,
      "SmallestImagePixelValue": 0,
      "SoftwareVersions": "syngo MR E11",
      "SpacingBetweenSlices": 3.8500000342037,
      "SpecificCharacterSet": "ISO_IR 100",
      "StudyID": "1",
      "StudyTime": "101241.199000",
      "TransmitCoilName": "Body",
      "VariableFlipAngleFlag": "N",
      "WindowCenterWidthExplanation": "Algo1",
      "dBdt": 0.0},
    "slices": {}
  },
  "time": {
    "samples": {
      "AcquisitionNumber": [1, 2, 3, 4, 5, 6, 7, 8, 9, 10, 11, 12, 13, 14, 15, 16, 17, 18, 19, 20, 21, 22, 23, 24, 25, 26, 27, 28, 29, 30, 31, 32, 33, 34, 35, 36, 37, 38, 39, 40, 41, 42, 43, 44, 45, 46, 47, 48, 49, 50, 51, 52, 53, 54, 55, 56, 57, 58, 59, 60, 61, 62, 63, 64, 65, 66, 67, 68, 69, 70, 71, 72, 73, 74, 75, 76, 77, 78, 79, 80, 81, 82, 83, 84, 85, 86, 87, 88, 89, 90, 91, 92, 93, 94, 95, 96, 97, 98, 99, 100, 101, 102, 103, 104, 105, 106, 107, 108, 109, 110, 111, 112, 113, 114, 115, 116, 117, 118, 119, 120, 121, 122, 123, 124, 125, 126, 127, 128, 129, 130, 131, 132, 133, 134, 135, 136, 137, 138, 139, 140, 141, 142, 143, 144, 145, 146, 147, 148, 149, 150, 151, 152, 153, 154, 155, 156, 157, 158, 159, 160, 161, 162, 163, 164, 165, 166, 167, 168, 169, 170, 171, 172, 173, 174, 175, 176, 177, 178, 179, 180, 181, 182, 183, 184, 185, 186, 187, 188, 189, 190, 191, 192, 193, 194, 195, 196, 197, 198, 199, 200, 201, 202, 203, 204, 205, 206, 207, 208, 209, 210, 211, 212, 213, 214, 215, 216, 217, 218, 219, 220, 221, 222, 223, 224, 225, 226, 227, 228, 229, 230, 231, 232, 233, 234, 235, 236, 237],
      "AcquisitionTime": ["105334.572500", "105336.572500", "105338.572500", "105340.572500", "105342.572500", "105344.572500", "105346.572500", "105348.572500", "105350.572500", "105352.572500", "105354.572500", "105356.572500", "105358.572500", "105400.572500", "105402.572500", "105404.572500", "105406.572500", "105408.572500", "105410.572500", "105412.572500", "105414.572500", "105416.572500", "105418.572500", "105420.572500", "105422.572500", "105424.572500", "105426.572500", "105428.572500", "105430.572500", "105432.572500", "105434.572500", "105436.572500", "105438.572500", "105440.572500", "105442.572500", "105444.572500", "105446.572500", "105448.572500", "105450.572500", "105452.572500", "105454.572500", "105456.572500", "105458.572500", "105500.572500", "105502.572500", "105504.572500", "105506.572500", "105508.572500", "105510.572500", "105512.572500", "105514.572500", "105516.572500", "105518.572500", "105520.572500", "105522.572500", "105524.572500", "105526.572500", "105528.572500", "105530.572500", "105532.572500", "105534.572500", "105536.572500", "105538.572500", "105540.572500", "105542.572500", "105544.572500", "105546.572500", "105548.572500", "105550.572500", "105552.572500", "105554.572500", "105556.572500", "105558.572500", "105600.572500", "105602.572500", "105604.572500", "105606.572500", "105608.572500", "105610.572500", "105612.572500", "105614.572500", "105616.572500", "105618.572500", "105620.572500", "105622.572500", "105624.572500", "105626.572500", "105628.572500", "105630.572500", "105632.572500", "105634.572500", "105636.572500", "105638.572500", "105640.572500", "105642.572500", "105644.572500", "105646.572500", "105648.572500", "105650.572500", "105652.572500", "105654.572500", "105656.572500", "105658.572500", "105700.572500", "105702.572500", "105704.572500", "105706.572500", "105708.572500", "105710.572500", "105712.572500", "105714.572500", "105716.572500", "105718.572500", "105720.572500", "105722.572500", "105724.572500", "105726.572500", "105728.572500", "105730.572500", "105732.572500", "105734.572500", "105736.572500", "105738.572500", "105740.572500", "105742.572500", "105744.572500", "105746.572500", "105748.572500", "105750.572500", "105752.572500", "105754.572500", "105756.572500", "105758.572500", "105800.572500", "105802.572500", "105804.572500", "105806.572500", "105808.572500", "105810.572500", "105812.572500", "105814.572500", "105816.572500", "105818.572500", "105820.572500", "105822.572500", "105824.572500", "105826.572500", "105828.572500", "105830.572500", "105832.572500", "105834.572500", "105836.572500", "105838.572500", "105840.572500", "105842.572500", "105844.572500", "105846.572500", "105848.572500", "105850.572500", "105852.572500", "105854.572500", "105856.572500", "105858.572500", "105900.572500", "105902.572500", "105904.572500", "105906.572500", "105908.572500", "105910.572500", "105912.572500", "105914.572500", "105916.572500", "105918.572500", "105920.572500", "105922.572500", "105924.572500", "105926.572500", "105928.572500", "105930.572500", "105932.572500", "105934.572500", "105936.572500", "105938.572500", "105940.572500", "105942.572500", "105944.572500", "105946.572500", "105948.572500", "105950.572500", "105952.572500", "105954.572500", "105956.572500", "105958.572500", "110000.572500", "110002.572500", "110004.572500", "110006.572500", "110008.572500", "110010.572500", "110012.572500", "110014.572500", "110016.572500", "110018.572500", "110020.572500", "110022.572500", "110024.572500", "110026.572500", "110028.572500", "110030.572500", "110032.572500", "110034.572500", "110036.572500", "110038.572500", "110040.572500", "110042.572500", "110044.572500", "110046.572500", "110048.572500", "110050.572500", "110052.572500", "110054.572500", "110056.572500", "110058.572500", "110100.572500", "110102.572500", "110104.572500", "110106.572500", "110108.572500", "110110.572500", "110112.572500", "110114.572500", "110116.572500", "110118.572500", "110120.572500", "110122.572500", "110124.572500", "110126.572500"],
      "ContentTime": ["105432.144000", "105432.148000", "105432.152000", "105432.155000", "105432.158000", "105432.162000", "105432.165000", "105432.168000", "105432.180000", "105432.183000", "105432.187000", "105432.190000", "105432.193000", "105432.196000", "105432.199000", "105432.202000", "105432.205000", "105432.208000", "105432.212000", "105432.215000", "105432.219000", "105432.222000", "105432.225000", "105432.229000", "105432.232000", "105432.235000", "105432.238000", "105432.249000", "105512.135000", "105512.139000", "105512.142000", "105512.146000", "105512.149000", "105512.152000", "105512.155000", "105512.159000", "105512.162000", "105512.165000", "105512.169000", "105512.172000", "105512.176000", "105512.179000", "105512.182000", "105512.185000", "105512.188000", "105512.191000", "105512.195000", "105512.198000", "105552.136000", "105552.139000", "105552.142000", "105552.145000", "105552.147000", "105552.150000", "105552.153000", "105552.156000", "105552.158000", "105552.161000", "105552.164000", "105552.167000", "105552.170000", "105552.172000", "105552.175000", "105552.178000", "105552.180000", "105552.183000", "105552.186000", "105552.189000", "105632.137000", "105632.141000", "105632.144000", "105632.147000", "105632.150000", "105632.154000", "105632.157000", "105632.160000", "105632.163000", "105632.167000", "105632.172000", "105632.175000", "105632.179000", "105632.183000", "105632.187000", "105632.190000", "105632.193000", "105632.197000", "105632.200000", "105632.203000", "105712.137000", "105712.140000", "105712.143000", "105712.147000", "105712.150000", "105712.153000", "105712.157000", "105712.160000", "105712.163000", "105712.166000", "105712.170000", "105712.173000", "105712.177000", "105712.181000", "105712.184000", "105712.187000", "105712.191000", "105712.194000", "105712.197000", "105712.201000", "105752.136000", "105752.139000", "105752.142000", "105752.144000", "105752.146000", "105752.149000", "105752.151000", "105752.154000", "105752.156000", "105752.159000", "105752.161000", "105752.164000", "105752.166000", "105752.169000", "105752.171000", "105752.174000", "105752.176000", "105752.179000", "105752.181000", "105752.184000", "105832.139000", "105832.142000", "105832.146000", "105832.149000", "105832.152000", "105832.155000", "105832.159000", "105832.162000", "105832.166000", "105832.170000", "105832.174000", "105832.178000", "105832.186000", "105832.189000", "105832.192000", "105832.196000", "105832.199000", "105832.202000", "105832.205000", "105832.208000", "105912.135000", "105912.138000", "105912.141000", "105912.144000", "105912.146000", "105912.149000", "105912.151000", "105912.154000", "105912.157000", "105912.173000", "105912.175000", "105912.178000", "105912.180000", "105912.183000", "105912.185000", "105912.188000", "105912.190000", "105912.193000", "105912.195000", "105912.198000", "105952.135000", "105952.138000", "105952.140000", "105952.174000", "105952.177000", "105952.179000", "105952.182000", "105952.184000", "105952.187000", "105952.189000", "105952.192000", "105952.194000", "105952.197000", "105952.200000", "105952.202000", "105952.205000", "105952.207000", "105952.209000", "105952.212000", "105952.214000", "110032.137000", "110032.140000", "110032.152000", "110032.156000", "110032.158000", "110032.162000", "110032.166000", "110032.169000", "110032.173000", "110032.176000", "110032.180000", "110032.183000", "110032.186000", "110032.189000", "110032.193000", "110032.196000", "110032.199000", "110032.202000", "110032.206000", "110032.209000", "110112.138000", "110112.141000", "110112.144000", "110112.148000", "110112.151000", "110112.154000", "110112.158000", "110112.162000", "110112.165000", "110112.168000", "110112.172000", "110112.175000", "110112.178000", "110112.182000", "110112.191000", "110112.194000", "110112.197000", "110112.200000", "110112.204000", "110112.207000", "110128.147000", "110128.150000", "110128.153000", "110128.155000", "110128.158000", "110128.160000", "110128.163000", "110128.166000", "110128.168000"],
      "InstanceCreationTime": ["105432.144000", "105432.148000", "105432.152000", "105432.155000", "105432.158000", "105432.162000", "105432.165000", "105432.168000", "105432.180000", "105432.183000", "105432.187000", "105432.190000", "105432.193000", "105432.196000", "105432.199000", "105432.202000", "105432.205000", "105432.208000", "105432.212000", "105432.215000", "105432.219000", "105432.222000", "105432.225000", "105432.229000", "105432.232000", "105432.235000", "105432.238000", "105432.249000", "105512.135000", "105512.139000", "105512.142000", "105512.146000", "105512.149000", "105512.152000", "105512.155000", "105512.159000", "105512.162000", "105512.165000", "105512.169000", "105512.172000", "105512.176000", "105512.179000", "105512.182000", "105512.185000", "105512.188000", "105512.191000", "105512.195000", "105512.198000", "105552.136000", "105552.139000", "105552.142000", "105552.145000", "105552.147000", "105552.150000", "105552.153000", "105552.156000", "105552.158000", "105552.161000", "105552.164000", "105552.167000", "105552.170000", "105552.172000", "105552.175000", "105552.178000", "105552.180000", "105552.183000", "105552.186000", "105552.189000", "105632.137000", "105632.141000", "105632.144000", "105632.147000", "105632.150000", "105632.154000", "105632.157000", "105632.160000", "105632.163000", "105632.167000", "105632.172000", "105632.175000", "105632.179000", "105632.183000", "105632.187000", "105632.190000", "105632.193000", "105632.197000", "105632.200000", "105632.203000", "105712.137000", "105712.140000", "105712.143000", "105712.147000", "105712.150000", "105712.153000", "105712.157000", "105712.160000", "105712.163000", "105712.166000", "105712.170000", "105712.173000", "105712.177000", "105712.181000", "105712.184000", "105712.187000", "105712.191000", "105712.194000", "105712.197000", "105712.201000", "105752.136000", "105752.139000", "105752.142000", "105752.144000", "105752.146000", "105752.149000", "105752.151000", "105752.154000", "105752.156000", "105752.159000", "105752.161000", "105752.164000", "105752.166000", "105752.169000", "105752.171000", "105752.174000", "105752.176000", "105752.179000", "105752.181000", "105752.184000", "105832.139000", "105832.142000", "105832.146000", "105832.149000", "105832.152000", "105832.155000", "105832.159000", "105832.162000", "105832.166000", "105832.170000", "105832.174000", "105832.178000", "105832.186000", "105832.189000", "105832.192000", "105832.196000", "105832.199000", "105832.202000", "105832.205000", "105832.208000", "105912.135000", "105912.138000", "105912.141000", "105912.144000", "105912.146000", "105912.149000", "105912.151000", "105912.154000", "105912.157000", "105912.173000", "105912.175000", "105912.178000", "105912.180000", "105912.183000", "105912.185000", "105912.188000", "105912.190000", "105912.193000", "105912.195000", "105912.198000", "105952.135000", "105952.138000", "105952.140000", "105952.174000", "105952.177000", "105952.179000", "105952.182000", "105952.184000", "105952.187000", "105952.189000", "105952.192000", "105952.194000", "105952.197000", "105952.200000", "105952.202000", "105952.205000", "105952.207000", "105952.209000", "105952.212000", "105952.214000", "110032.137000", "110032.140000", "110032.152000", "110032.156000", "110032.158000", "110032.162000", "110032.166000", "110032.169000", "110032.173000", "110032.176000", "110032.180000", "110032.183000", "110032.186000", "110032.189000", "110032.193000", "110032.196000", "110032.199000", "110032.202000", "110032.206000", "110032.209000", "110112.138000", "110112.141000", "110112.144000", "110112.148000", "110112.151000", "110112.154000", "110112.158000", "110112.162000", "110112.165000", "110112.168000", "110112.172000", "110112.175000", "110112.178000", "110112.182000", "110112.191000", "110112.194000", "110112.197000", "110112.200000", "110112.204000", "110112.207000", "110128.147000", "110128.150000", "110128.153000", "110128.155000", "110128.158000", "110128.160000", "110128.163000", "110128.166000", "110128.168000"],
      "InstanceNumber": [1, 2, 3, 4, 5, 6, 7, 8, 9, 10, 11, 12, 13, 14, 15, 16, 17, 18, 19, 20, 21, 22, 23, 24, 25, 26, 27, 28, 29, 30, 31, 32, 33, 34, 35, 36, 37, 38, 39, 40, 41, 42, 43, 44, 45, 46, 47, 48, 49, 50, 51, 52, 53, 54, 55, 56, 57, 58, 59, 60, 61, 62, 63, 64, 65, 66, 67, 68, 69, 70, 71, 72, 73, 74, 75, 76, 77, 78, 79, 80, 81, 82, 83, 84, 85, 86, 87, 88, 89, 90, 91, 92, 93, 94, 95, 96, 97, 98, 99, 100, 101, 102, 103, 104, 105, 106, 107, 108, 109, 110, 111, 112, 113, 114, 115, 116, 117, 118, 119, 120, 121, 122, 123, 124, 125, 126, 127, 128, 129, 130, 131, 132, 133, 134, 135, 136, 137, 138, 139, 140, 141, 142, 143, 144, 145, 146, 147, 148, 149, 150, 151, 152, 153, 154, 155, 156, 157, 158, 159, 160, 161, 162, 163, 164, 165, 166, 167, 168, 169, 170, 171, 172, 173, 174, 175, 176, 177, 178, 179, 180, 181, 182, 183, 184, 185, 186, 187, 188, 189, 190, 191, 192, 193, 194, 195, 196, 197, 198, 199, 200, 201, 202, 203, 204, 205, 206, 207, 208, 209, 210, 211, 212, 213, 214, 215, 216, 217, 218, 219, 220, 221, 222, 223, 224, 225, 226, 227, 228, 229, 230, 231, 232, 233, 234, 235, 236, 237],
      "LargestImagePixelValue": [1799, 1822, 2211, 2108, 1699, 2416, 2162, 1804, 1696, 2320, 1705, 1804, 2551, 2008, 1700, 2284, 1762, 1687, 2332, 2046, 1701, 1803, 2515, 1704, 1702, 2342, 1698, 1992, 2277, 1696, 1932, 1726, 1859, 2574, 1707, 1698, 2182, 1707, 1703, 1703, 2490, 1709, 1704, 2027, 2446, 1704, 1698, 2338, 1874, 1695, 2281, 1974, 1700, 2334, 1746, 1701, 2318, 1764, 1701, 2307, 1707, 1698, 2348, 1701, 1739, 2468, 1945, 1792, 1705, 1861, 1703, 1888, 2479, 1701, 1695, 2245, 2075, 1692, 1950, 1703, 1713, 2242, 1698, 2215, 2277, 1700, 1695, 2284, 1796, 1701, 1945, 2088, 1696, 1940, 2371, 1707, 1703, 2172, 1702, 1694, 2369, 1695, 1907, 2100, 1703, 1901, 2222, 1701, 2278, 2355, 1701, 2307, 1705, 1743, 2531, 1694, 1695, 2192, 1705, 1759, 2629, 1710, 1700, 2447, 1711, 1703, 1996, 1701, 1692, 1845, 2628, 1710, 1704, 2334, 2007, 1702, 2299, 2386, 1709, 1771, 2346, 1718, 1975, 2358, 1707, 1970, 1945, 1699, 2075, 2325, 1699, 1823, 2138, 1702, 2245, 2515, 1703, 1774, 2452, 1760, 1705, 2520, 1703, 1759, 2566, 1775, 1780, 2241, 1728, 1875, 1841, 1712, 2027, 2627, 1713, 1709, 2510, 1699, 1733, 2471, 1701, 1752, 2088, 1698, 2165, 2095, 1705, 2093, 1837, 1709, 2413, 1707, 1706, 2547, 1712, 1709, 2241, 1970, 1697, 1966, 2449, 1741, 1696, 2289, 2285, 1714, 1713, 2280, 1714, 1991, 2377, 1715, 2092, 2421, 1770, 1833, 2113, 1813, 1831, 2456, 1712, 1712, 2533, 1711, 1713, 2310, 2175, 1775, 1914, 2088, 1710, 1862, 1717, 1717, 2176, 1713, 1711],
      "WindowCenter": [689.0, 689.0, 690.0, 689.0, 688.0, 689.0, 688.0, 687.0, 687.0, 690.0, 688.0, 688.0, 690.0, 687.0, 686.0, 689.0, 687.0, 686.0, 689.0, 687.0, 687.0, 687.0, 689.0, 686.0, 686.0, 690.0, 687.0, 688.0, 689.0, 686.0, 688.0, 688.0, 687.0, 690.0, 686.0, 686.0, 688.0, 687.0, 687.0, 687.0, 690.0, 687.0, 686.0, 689.0, 690.0, 687.0, 687.0, 689.0, 687.0, 687.0, 689.0, 688.0, 687.0, 690.0, 687.0, 686.0, 689.0, 687.0, 686.0, 689.0, 686.0, 686.0, 689.0, 688.0, 688.0, 691.0, 687.0, 686.0, 686.0, 688.0, 687.0, 687.0, 689.0, 686.0, 686.0, 688.0, 688.0, 686.0, 687.0, 686.0, 687.0, 688.0, 686.0, 689.0, 688.0, 686.0, 687.0, 690.0, 687.0, 686.0, 687.0, 688.0, 687.0, 688.0, 689.0, 686.0, 686.0, 689.0, 687.0, 688.0, 690.0, 687.0, 687.0, 688.0, 687.0, 687.0, 689.0, 687.0, 689.0, 689.0, 686.0, 689.0, 686.0, 687.0, 689.0, 686.0, 686.0, 689.0, 687.0, 687.0, 689.0, 686.0, 686.0, 689.0, 686.0, 687.0, 688.0, 687.0, 688.0, 688.0, 690.0, 686.0, 686.0, 689.0, 688.0, 687.0, 689.0, 689.0, 686.0, 686.0, 689.0, 687.0, 688.0, 689.0, 686.0, 687.0, 688.0, 688.0, 689.0, 689.0, 687.0, 688.0, 690.0, 688.0, 689.0, 689.0, 686.0, 686.0, 689.0, 687.0, 687.0, 690.0, 687.0, 686.0, 689.0, 687.0, 687.0, 689.0, 686.0, 687.0, 688.0, 688.0, 689.0, 690.0, 686.0, 687.0, 690.0, 687.0, 687.0, 689.0, 687.0, 687.0, 688.0, 687.0, 689.0, 688.0, 686.0, 689.0, 688.0, 687.0, 690.0, 687.0, 687.0, 690.0, 687.0, 686.0, 689.0, 688.0, 687.0, 687.0, 689.0, 687.0, 688.0, 689.0, 689.0, 686.0, 687.0, 690.0, 688.0, 688.0, 690.0, 687.0, 689.0, 689.0, 687.0, 687.0, 689.0, 689.0, 689.0, 690.0, 687.0, 687.0, 689.0, 686.0, 686.0, 688.0, 688.0, 686.0, 688.0, 688.0, 686.0, 687.0, 686.0, 687.0, 689.0, 688.0, 687.0],
      "WindowWidth": [1522.0, 1519.0, 1523.0, 1521.0, 1515.0, 1522.0, 1517.0, 1513.0, 1515.0, 1525.0, 1516.0, 1516.0, 1523.0, 1515.0, 1512.0, 1520.0, 1513.0, 1510.0, 1520.0, 1516.0, 1513.0, 1514.0, 1521.0, 1510.0, 1511.0, 1522.0, 1513.0, 1517.0, 1520.0, 1512.0, 1518.0, 1517.0, 1515.0, 1522.0, 1511.0, 1512.0, 1519.0, 1513.0, 1513.0, 1514.0, 1524.0, 1513.0, 1511.0, 1518.0, 1523.0, 1513.0, 1513.0, 1522.0, 1516.0, 1513.0, 1521.0, 1517.0, 1513.0, 1522.0, 1514.0, 1512.0, 1519.0, 1513.0, 1511.0, 1519.0, 1511.0, 1512.0, 1520.0, 1515.0, 1516.0, 1525.0, 1515.0, 1512.0, 1512.0, 1518.0, 1515.0, 1515.0, 1521.0, 1511.0, 1512.0, 1519.0, 1518.0, 1510.0, 1515.0, 1511.0, 1513.0, 1519.0, 1512.0, 1519.0, 1519.0, 1511.0, 1513.0, 1522.0, 1514.0, 1510.0, 1513.0, 1516.0, 1514.0, 1517.0, 1520.0, 1511.0, 1512.0, 1520.0, 1514.0, 1515.0, 1523.0, 1514.0, 1515.0, 1518.0, 1514.0, 1516.0, 1521.0, 1513.0, 1522.0, 1522.0, 1511.0, 1520.0, 1512.0, 1513.0, 1521.0, 1510.0, 1512.0, 1520.0, 1514.0, 1514.0, 1521.0, 1511.0, 1511.0, 1521.0, 1512.0, 1513.0, 1517.0, 1513.0, 1516.0, 1517.0, 1524.0, 1511.0, 1511.0, 1520.0, 1516.0, 1512.0, 1519.0, 1520.0, 1510.0, 1512.0, 1520.0, 1514.0, 1518.0, 1521.0, 1511.0, 1513.0, 1517.0, 1516.0, 1520.0, 1521.0, 1513.0, 1516.0, 1521.0, 1516.0, 1521.0, 1522.0, 1511.0, 1512.0, 1520.0, 1513.0, 1513.0, 1524.0, 1513.0, 1512.0, 1522.0, 1515.0, 1514.0, 1520.0, 1512.0, 1513.0, 1516.0, 1516.0, 1519.0, 1525.0, 1511.0, 1513.0, 1524.0, 1514.0, 1514.0, 1522.0, 1513.0, 1515.0, 1518.0, 1513.0, 1519.0, 1518.0, 1511.0, 1520.0, 1516.0, 1513.0, 1523.0, 1514.0, 1515.0, 1524.0, 1512.0, 1512.0, 1520.0, 1518.0, 1513.0, 1515.0, 1521.0, 1515.0, 1515.0, 1521.0, 1519.0, 1512.0, 1515.0, 1523.0, 1515.0, 1517.0, 1522.0, 1514.0, 1519.0, 1522.0, 1514.0, 1513.0, 1520.0, 1519.0, 1519.0, 1524.0, 1514.0, 1514.0, 1523.0, 1512.0, 1511.0, 1518.0, 1517.0, 1512.0, 1516.0, 1519.0, 1510.0, 1515.0, 1512.0, 1514.0, 1519.0, 1515.0, 1514.0]
    },
    "slices": {}
  }
}