{
  "AcquisitionMatrixPE": 70,
  "AcquisitionNumber": 1,
  "AcquisitionTime": "09:40:53.245000",
  "BandwidthPerPixelPhaseEncode": 38.873,
  "BaseResolution": 70,
  "BodyPartExamined": "HEAD",
  "ConsistencyInfo": "N4_VE11B_LATEST_20150530",
  "ConversionSoftware": "dcm2niix",
  "ConversionSoftwareVersion": "v1.0.20190410  GCC6.3.0",
  "DerivedVendorReportedEchoSpacing": 0.000489996,
  "DeviceSerialNumber": "66088",
  "DwellTime": 2.9e-06,
  "EchoTime": 0.03,
  "EchoTrainLength": 53,
  "EffectiveEchoSpacing": 0.000367497,
  "FlipAngle": 90,
  "ImageOrientationPatientDICOM": [0.99903, 0.0204486, 0.0389942, -0.0017436, 0.903294, -0.429018],
  "ImageType": [
    "ORIGINAL",
    "PRIMARY",
    "M",
    "ND",
    "NORM",
    "MOSAIC"
],
  "ImagingFrequency": 123.191,
  "InPlanePhaseEncodingDirectionDICOM": "COL",
  "InstitutionAddress": "Street_StreetNo_City_District_IR_ZIP",
  "InstitutionName": "NBML",
  "InstitutionalDepartmentName": "Department",
  "MRAcquisitionType": "2D",
  "MagneticFieldStrength": 3,
  "Manufacturer": "Siemens",
  "ManufacturersModelName": "Prisma",
  "Modality": "MR",
  "ParallelReductionFactorInPlane": 2,
  "PartialFourier": 1,
  "PatientPosition": "HFS",
  "PercentPhaseFOV": 100,
  "PhaseEncodingDirection": "j-",
  "PhaseEncodingSteps": 105,
  "PhaseOversampling": 0.5,
  "PhaseResolution": 1,
  "PixelBandwidth": 2465,
  "ProcedureStepDescription": "NBML_Project_P-96169-Ebrahiminiya",
  "ProtocolName": "ep2d_p2_Task_3.5_measurment:237",
  "PulseSequenceDetails": "%SiemensSeq%_ep2d_pace",
  "ReceiveCoilActiveElements": "HC1-7;NC1",
  "ReceiveCoilName": "HeadNeck_64",
  "ReconMatrixPE": 70,
  "RefLinesPE": 24,
  "RepetitionTime": 2,
  "SAR": 0.0942223,
  "ScanOptions": "FS",
  "ScanningSequence": "EP",
  "SequenceName": "_epfid2d1_70",
  "SequenceVariant": "SK_OSP",
  "SeriesDescription": "ep2d_p2_Task_3.5_measurment:237",
  "SeriesNumber": 6,
  "ShimSetting": [2617, -4440, -3194, 457, 23, 103, -160, 62],
  "SliceThickness": 3.5,
  "SliceTiming": [0.99, 0, 1.0475, 0.0575, 1.1075, 0.1175, 1.165, 0.175, 1.2225, 0.2325, 1.28, 0.29, 1.34, 0.35, 1.3975, 0.4075, 1.455, 0.465, 1.515, 0.525, 1.5725, 0.5825, 1.63, 0.64, 1.6875, 0.6975, 1.7475, 0.7575, 1.805, 0.815, 1.8625, 0.8725, 1.9225, 0.9325],
  "SoftwareVersions": "syngo_MR_E11",
  "SpacingBetweenSlices": 3.85,
  "StationName": "AWP66088",
  "TaskName": "categorySelectivity",
  "TotalReadoutTime": 0.0253573,
  "TxRefAmp": 274.531,
  "dcmmeta_affine": [
    [-3.539421319961548, -0.006177311297506094, 0.1693846434354782, 125.55367279052734],
    [-0.07244646549224854, 3.200242519378662, -1.6498558521270752, -93.78807830810547],
    [0.13815072178840637, 1.5199496746063232, 3.474447250366211, -93.92389678955078],
    [0.0, 0.0, 0.0, 1.0]
],
  "dcmmeta_reorient_transform": [
    [0.0, -1.0, 0.0, 69.0],
    [1.0, 0.0, 0.0, 0.0],
    [0.0, 0.0, 1.0, 0.0],
    [0.0, 0.0, 0.0, 1.0]
],
  "dcmmeta_shape": [70, 70, 34, 237],
  "dcmmeta_slice_dim": 2,
  "dcmmeta_version": 0.6,
  "global": {
    "const": {
      "AccessionNumber": "M.BRZ",
      "AcquisitionMatrix": [70, 0, 0, 70],
      "AngioFlag": "N",
      "BitsAllocated": 16,
      "BitsStored": 12,
      "BodyPartExamined": "HEAD",
      "Columns": 420,
      "EchoNumbers": 1,
      "EchoTime": 30.0,
      "EchoTrainLength": 53,
      "FlipAngle": 90.0,
      "HighBit": 11,
      "ImageOrientationPatient": [0.99903018505438, 0.02044859874886, 0.0389941554522, -0.0017435958783, 0.90329423477204, -0.4290180477568],
      "ImagePositionPatient": [-743.44512552016, -699.74921436458, 252.76744638025],
      "ImageType": [
        "ORIGINAL",
        "PRIMARY",
        "M",
        "ND",
        "NORM",
        "MOSAIC"
],
      "ImagedNucleus": "1H",
      "ImagingFrequency": 123.191109,
      "InPlanePhaseEncodingDirection": "COL",
      "MRAcquisitionType": "2D",
      "MagneticFieldStrength": 3.0,
      "Manufacturer": "SIEMENS",
      "ManufacturerModelName": "Prisma",
      "Modality": "MR",
      "NumberOfAverages": 1.0,
      "NumberOfPhaseEncodingSteps": 105,
      "PercentPhaseFieldOfView": 100.0,
      "PercentSampling": 100.0,
      "PerformedProcedureStepStartTime": "085708.053000",
      "PhotometricInterpretation": "MONOCHROME2",
      "PixelBandwidth": 2465.0,
      "PixelRepresentation": 0,
      "PixelSpacing": [3.542857170105, 3.542857170105],
      "ProtocolName": "ep2d_p2_Task_3.5_measurment:237",
      "RepetitionTime": 2000.0,
      "Rows": 420,
      "SAR": 0.09422229662693,
      "SamplesPerPixel": 1,
      "ScanOptions": "FS",
      "ScanningSequence": "EP",
      "SequenceName": "*epfid2d1_70",
      "SequenceVariant": [
        "SK",
        "OSP"
],
      "SeriesDescription": "ep2d_p2_Task_3.5_measurment:237",
      "SeriesNumber": 6,
      "SeriesTime": "094134.849000",
      "SliceLocation": -39.046742777036,
      "SliceThickness": 3.5,
      "SmallestImagePixelValue": 0,
      "SoftwareVersions": "syngo MR E11",
      "SpacingBetweenSlices": 3.8499999329472,
      "SpecificCharacterSet": "ISO_IR 100",
      "StudyID": "1",
      "StudyTime": "085707.911000",
      "TransmitCoilName": "Body",
      "VariableFlipAngleFlag": "N",
      "WindowCenterWidthExplanation": "Algo1",
      "dBdt": 0.0},
    "slices": {}
  },
  "time": {
    "samples": {
      "AcquisitionNumber": [1, 2, 3, 4, 5, 6, 7, 8, 9, 10, 11, 12, 13, 14, 15, 16, 17, 18, 19, 20, 21, 22, 23, 24, 25, 26, 27, 28, 29, 30, 31, 32, 33, 34, 35, 36, 37, 38, 39, 40, 41, 42, 43, 44, 45, 46, 47, 48, 49, 50, 51, 52, 53, 54, 55, 56, 57, 58, 59, 60, 61, 62, 63, 64, 65, 66, 67, 68, 69, 70, 71, 72, 73, 74, 75, 76, 77, 78, 79, 80, 81, 82, 83, 84, 85, 86, 87, 88, 89, 90, 91, 92, 93, 94, 95, 96, 97, 98, 99, 100, 101, 102, 103, 104, 105, 106, 107, 108, 109, 110, 111, 112, 113, 114, 115, 116, 117, 118, 119, 120, 121, 122, 123, 124, 125, 126, 127, 128, 129, 130, 131, 132, 133, 134, 135, 136, 137, 138, 139, 140, 141, 142, 143, 144, 145, 146, 147, 148, 149, 150, 151, 152, 153, 154, 155, 156, 157, 158, 159, 160, 161, 162, 163, 164, 165, 166, 167, 168, 169, 170, 171, 172, 173, 174, 175, 176, 177, 178, 179, 180, 181, 182, 183, 184, 185, 186, 187, 188, 189, 190, 191, 192, 193, 194, 195, 196, 197, 198, 199, 200, 201, 202, 203, 204, 205, 206, 207, 208, 209, 210, 211, 212, 213, 214, 215, 216, 217, 218, 219, 220, 221, 222, 223, 224, 225, 226, 227, 228, 229, 230, 231, 232, 233, 234, 235, 236, 237],
      "AcquisitionTime": ["094053.245000", "094055.245000", "094057.245000", "094059.245000", "094101.245000", "094103.245000", "094105.245000", "094107.245000", "094109.245000", "094111.245000", "094113.245000", "094115.245000", "094117.245000", "094119.245000", "094121.245000", "094123.245000", "094125.245000", "094127.245000", "094129.245000", "094131.245000", "094133.245000", "094135.245000", "094137.245000", "094139.245000", "094141.245000", "094143.245000", "094145.245000", "094147.245000", "094149.245000", "094151.245000", "094153.245000", "094155.245000", "094157.245000", "094159.245000", "094201.245000", "094203.245000", "094205.245000", "094207.245000", "094209.245000", "094211.245000", "094213.245000", "094215.245000", "094217.245000", "094219.245000", "094221.245000", "094223.245000", "094225.245000", "094227.245000", "094229.245000", "094231.245000", "094233.245000", "094235.245000", "094237.245000", "094239.245000", "094241.245000", "094243.245000", "094245.245000", "094247.245000", "094249.245000", "094251.245000", "094253.245000", "094255.245000", "094257.245000", "094259.245000", "094301.245000", "094303.245000", "094305.245000", "094307.245000", "094309.245000", "094311.245000", "094313.245000", "094315.245000", "094317.245000", "094319.245000", "094321.245000", "094323.245000", "094325.245000", "094327.245000", "094329.245000", "094331.245000", "094333.245000", "094335.245000", "094337.245000", "094339.245000", "094341.245000", "094343.245000", "094345.245000", "094347.245000", "094349.245000", "094351.245000", "094353.245000", "094355.245000", "094357.245000", "094359.245000", "094401.245000", "094403.245000", "094405.245000", "094407.245000", "094409.245000", "094411.245000", "094413.245000", "094415.245000", "094417.245000", "094419.245000", "094421.245000", "094423.245000", "094425.245000", "094427.245000", "094429.245000", "094431.245000", "094433.245000", "094435.245000", "094437.245000", "094439.245000", "094441.245000", "094443.245000", "094445.245000", "094447.245000", "094449.245000", "094451.245000", "094453.245000", "094455.245000", "094457.245000", "094459.245000", "094501.245000", "094503.245000", "094505.245000", "094507.245000", "094509.245000", "094511.245000", "094513.245000", "094515.245000", "094517.245000", "094519.245000", "094521.245000", "094523.245000", "094525.245000", "094527.245000", "094529.245000", "094531.245000", "094533.245000", "094535.245000", "094537.245000", "094539.245000", "094541.245000", "094543.245000", "094545.245000", "094547.245000", "094549.245000", "094551.245000", "094553.245000", "094555.245000", "094557.245000", "094559.245000", "094601.245000", "094603.245000", "094605.245000", "094607.245000", "094609.245000", "094611.245000", "094613.245000", "094615.245000", "094617.245000", "094619.245000", "094621.245000", "094623.245000", "094625.245000", "094627.245000", "094629.245000", "094631.245000", "094633.245000", "094635.245000", "094637.245000", "094639.245000", "094641.245000", "094643.245000", "094645.245000", "094647.245000", "094649.245000", "094651.245000", "094653.245000", "094655.245000", "094657.245000", "094659.245000", "094701.245000", "094703.245000", "094705.245000", "094707.245000", "094709.245000", "094711.245000", "094713.245000", "094715.245000", "094717.245000", "094719.245000", "094721.245000", "094723.245000", "094725.245000", "094727.245000", "094729.245000", "094731.245000", "094733.245000", "094735.245000", "094737.245000", "094739.245000", "094741.245000", "094743.245000", "094745.245000", "094747.245000", "094749.245000", "094751.245000", "094753.245000", "094755.245000", "094757.245000", "094759.245000", "094801.245000", "094803.245000", "094805.245000", "094807.245000", "094809.245000", "094811.245000", "094813.245000", "094815.245000", "094817.245000", "094819.245000", "094821.245000", "094823.245000", "094825.245000", "094827.245000", "094829.245000", "094831.245000", "094833.245000", "094835.245000", "094837.245000", "094839.245000", "094841.245000", "094843.245000", "094845.245000"],
      "ContentTime": ["094134.854000", "094134.878000", "094134.881000", "094134.884000", "094134.887000", "094134.890000", "094134.893000", "094134.897000", "094134.900000", "094134.912000", "094134.915000", "094134.918000", "094134.923000", "094134.926000", "094134.929000", "094134.932000", "094134.936000", "094134.939000", "094134.943000", "094134.946000", "094134.949000", "094214.848000", "094214.852000", "094214.855000", "094214.859000", "094214.862000", "094214.865000", "094214.869000", "094214.872000", "094214.876000", "094214.879000", "094214.883000", "094214.886000", "094214.889000", "094214.893000", "094214.896000", "094214.900000", "094214.903000", "094214.906000", "094214.910000", "094214.913000", "094254.849000", "094254.852000", "094254.855000", "094254.859000", "094254.862000", "094254.865000", "094254.868000", "094254.871000", "094254.874000", "094254.877000", "094254.880000", "094254.884000", "094254.887000", "094254.894000", "094254.897000", "094254.900000", "094254.903000", "094254.907000", "094254.910000", "094254.913000", "094334.849000", "094334.855000", "094334.858000", "094334.862000", "094334.865000", "094334.868000", "094334.871000", "094334.874000", "094334.878000", "094334.881000", "094334.884000", "094334.887000", "094334.890000", "094334.893000", "094334.895000", "094334.898000", "094334.901000", "094334.903000", "094334.906000", "094334.908000", "094414.848000", "094414.851000", "094414.854000", "094414.857000", "094414.860000", "094414.863000", "094414.867000", "094414.870000", "094414.873000", "094414.876000", "094414.886000", "094414.889000", "094414.892000", "094414.896000", "094414.899000", "094414.902000", "094414.906000", "094414.909000", "094414.912000", "094414.915000", "094454.848000", "094454.851000", "094454.854000", "094454.857000", "094454.860000", "094454.864000", "094454.867000", "094454.870000", "094454.873000", "094454.877000", "094454.880000", "094454.883000", "094454.886000", "094454.890000", "094454.893000", "094454.896000", "094454.899000", "094454.902000", "094454.905000", "094454.909000", "094534.850000", "094534.854000", "094534.860000", "094534.863000", "094534.866000", "094534.870000", "094534.873000", "094534.876000", "094534.880000", "094534.883000", "094534.886000", "094534.889000", "094534.893000", "094534.896000", "094534.899000", "094534.902000", "094534.906000", "094534.910000", "094534.913000", "094534.916000", "094614.848000", "094614.859000", "094614.862000", "094614.866000", "094614.869000", "094614.872000", "094614.875000", "094614.879000", "094614.882000", "094614.885000", "094614.888000", "094614.891000", "094614.895000", "094614.898000", "094614.901000", "094614.904000", "094614.907000", "094614.910000", "094614.914000", "094614.917000", "094654.851000", "094654.855000", "094654.858000", "094654.862000", "094654.865000", "094654.877000", "094654.881000", "094654.884000", "094654.887000", "094654.891000", "094654.894000", "094654.897000", "094654.900000", "094654.904000", "094654.907000", "094654.910000", "094654.913000", "094654.917000", "094654.920000", "094654.923000", "094734.849000", "094734.852000", "094734.855000", "094734.859000", "094734.862000", "094734.865000", "094734.868000", "094734.871000", "094734.874000", "094734.877000", "094734.881000", "094734.884000", "094734.887000", "094734.890000", "094734.893000", "094734.897000", "094734.900000", "094734.903000", "094734.906000", "094734.909000", "094814.849000", "094814.852000", "094814.864000", "094814.867000", "094814.871000", "094814.874000", "094814.877000", "094814.880000", "094814.883000", "094814.886000", "094814.889000", "094814.893000", "094814.896000", "094814.899000", "094814.903000", "094814.913000", "094814.916000", "094814.920000", "094814.923000", "094814.926000", "094846.580000", "094846.585000", "094846.588000", "094846.592000", "094846.599000", "094846.603000", "094846.606000", "094846.611000", "094846.615000", "094846.620000", "094846.624000", "094846.633000", "094846.636000", "094846.639000", "094846.643000", "094846.650000"],
      "InstanceCreationTime": ["094134.854000", "094134.878000", "094134.881000", "094134.884000", "094134.887000", "094134.890000", "094134.893000", "094134.897000", "094134.900000", "094134.912000", "094134.915000", "094134.918000", "094134.923000", "094134.926000", "094134.929000", "094134.932000", "094134.936000", "094134.939000", "094134.943000", "094134.946000", "094134.949000", "094214.848000", "094214.852000", "094214.855000", "094214.859000", "094214.862000", "094214.865000", "094214.869000", "094214.872000", "094214.876000", "094214.879000", "094214.883000", "094214.886000", "094214.889000", "094214.893000", "094214.896000", "094214.900000", "094214.903000", "094214.906000", "094214.910000", "094214.913000", "094254.849000", "094254.852000", "094254.855000", "094254.859000", "094254.862000", "094254.865000", "094254.868000", "094254.871000", "094254.874000", "094254.877000", "094254.880000", "094254.884000", "094254.887000", "094254.894000", "094254.897000", "094254.900000", "094254.903000", "094254.907000", "094254.910000", "094254.913000", "094334.849000", "094334.855000", "094334.858000", "094334.862000", "094334.865000", "094334.868000", "094334.871000", "094334.874000", "094334.878000", "094334.881000", "094334.884000", "094334.887000", "094334.890000", "094334.893000", "094334.895000", "094334.898000", "094334.901000", "094334.903000", "094334.906000", "094334.908000", "094414.848000", "094414.851000", "094414.854000", "094414.857000", "094414.860000", "094414.863000", "094414.867000", "094414.870000", "094414.873000", "094414.876000", "094414.886000", "094414.889000", "094414.892000", "094414.896000", "094414.899000", "094414.902000", "094414.906000", "094414.909000", "094414.912000", "094414.915000", "094454.848000", "094454.851000", "094454.854000", "094454.857000", "094454.860000", "094454.864000", "094454.867000", "094454.870000", "094454.873000", "094454.877000", "094454.880000", "094454.883000", "094454.886000", "094454.890000", "094454.893000", "094454.896000", "094454.899000", "094454.902000", "094454.905000", "094454.909000", "094534.850000", "094534.854000", "094534.860000", "094534.863000", "094534.866000", "094534.870000", "094534.873000", "094534.876000", "094534.880000", "094534.883000", "094534.886000", "094534.889000", "094534.893000", "094534.896000", "094534.899000", "094534.902000", "094534.906000", "094534.910000", "094534.913000", "094534.916000", "094614.848000", "094614.859000", "094614.862000", "094614.866000", "094614.869000", "094614.872000", "094614.875000", "094614.879000", "094614.882000", "094614.885000", "094614.888000", "094614.891000", "094614.895000", "094614.898000", "094614.901000", "094614.904000", "094614.907000", "094614.910000", "094614.914000", "094614.917000", "094654.851000", "094654.855000", "094654.858000", "094654.862000", "094654.865000", "094654.877000", "094654.881000", "094654.884000", "094654.887000", "094654.891000", "094654.894000", "094654.897000", "094654.900000", "094654.904000", "094654.907000", "094654.910000", "094654.913000", "094654.917000", "094654.920000", "094654.923000", "094734.849000", "094734.852000", "094734.855000", "094734.859000", "094734.862000", "094734.865000", "094734.868000", "094734.871000", "094734.874000", "094734.877000", "094734.881000", "094734.884000", "094734.887000", "094734.890000", "094734.893000", "094734.897000", "094734.900000", "094734.903000", "094734.906000", "094734.909000", "094814.849000", "094814.852000", "094814.864000", "094814.867000", "094814.871000", "094814.874000", "094814.877000", "094814.880000", "094814.883000", "094814.886000", "094814.889000", "094814.893000", "094814.896000", "094814.899000", "094814.903000", "094814.913000", "094814.916000", "094814.920000", "094814.923000", "094814.926000", "094846.580000", "094846.585000", "094846.588000", "094846.592000", "094846.599000", "094846.603000", "094846.606000", "094846.611000", "094846.615000", "094846.620000", "094846.624000", "094846.633000", "094846.636000", "094846.639000", "094846.643000", "094846.650000"],
      "InstanceNumber": [1, 2, 3, 4, 5, 6, 7, 8, 9, 10, 11, 12, 13, 14, 15, 16, 17, 18, 19, 20, 21, 22, 23, 24, 25, 26, 27, 28, 29, 30, 31, 32, 33, 34, 35, 36, 37, 38, 39, 40, 41, 42, 43, 44, 45, 46, 47, 48, 49, 50, 51, 52, 53, 54, 55, 56, 57, 58, 59, 60, 61, 62, 63, 64, 65, 66, 67, 68, 69, 70, 71, 72, 73, 74, 75, 76, 77, 78, 79, 80, 81, 82, 83, 84, 85, 86, 87, 88, 89, 90, 91, 92, 93, 94, 95, 96, 97, 98, 99, 100, 101, 102, 103, 104, 105, 106, 107, 108, 109, 110, 111, 112, 113, 114, 115, 116, 117, 118, 119, 120, 121, 122, 123, 124, 125, 126, 127, 128, 129, 130, 131, 132, 133, 134, 135, 136, 137, 138, 139, 140, 141, 142, 143, 144, 145, 146, 147, 148, 149, 150, 151, 152, 153, 154, 155, 156, 157, 158, 159, 160, 161, 162, 163, 164, 165, 166, 167, 168, 169, 170, 171, 172, 173, 174, 175, 176, 177, 178, 179, 180, 181, 182, 183, 184, 185, 186, 187, 188, 189, 190, 191, 192, 193, 194, 195, 196, 197, 198, 199, 200, 201, 202, 203, 204, 205, 206, 207, 208, 209, 210, 211, 212, 213, 214, 215, 216, 217, 218, 219, 220, 221, 222, 223, 224, 225, 226, 227, 228, 229, 230, 231, 232, 233, 234, 235, 236, 237],
      "LargestImagePixelValue": [2356, 2226, 2329, 2362, 2034, 1862, 2076, 2085, 2334, 2271, 2414, 2425, 2492, 2440, 1868, 1962, 1915, 2342, 2096, 2323, 1885, 1848, 2281, 2258, 2849, 2217, 2186, 2216, 2415, 2278, 1947, 2071, 1886, 2284, 2174, 2539, 1848, 2018, 2227, 2417, 2471, 2638, 1891, 1885, 2312, 2390, 2497, 1995, 2008, 2407, 2305, 2290, 1940, 1846, 1990, 2145, 2327, 2093, 2428, 1821, 2073, 2159, 2445, 2261, 2905, 1983, 1904, 2151, 2251, 2516, 1988, 1829, 2109, 2132, 2467, 2758, 1944, 2078, 2339, 2258, 2745, 2030, 1978, 2118, 2209, 2261, 2344, 1869, 1861, 2336, 2431, 2069, 1976, 2781, 3093, 1833, 2018, 2062, 2372, 2170, 1857, 2026, 2166, 2373, 2305, 2017, 1963, 2568, 2081, 1978, 2037, 2247, 2485, 2239, 1975, 2085, 2612, 1863, 1980, 2095, 2491, 1843, 1872, 2051, 1949, 2211, 2402, 1880, 2157, 2277, 2634, 2457, 1846, 1893, 2142, 2493, 2434, 1829, 1971, 2211, 2090, 1889, 1936, 2143, 2534, 1878, 1975, 2070, 2052, 1923, 1953, 2355, 2232, 2899, 2177, 1960, 2041, 2094, 2345, 2669, 2093, 1852, 2041, 2017, 2648, 1846, 1856, 1939, 2711, 2414, 1871, 1859, 2071, 2311, 2086, 1882, 2078, 1848, 2107, 1848, 2487, 2388, 3470, 2267, 2097, 1884, 2089, 2183, 2604, 2536, 1865, 1858, 2478, 3416, 1847, 1869, 1877, 2674, 2165, 1890, 1949, 2552, 2359, 1882, 2277, 2175, 2585, 2196, 1879, 1859, 2444, 1900, 2008, 2462, 3204, 1876, 1892, 2298, 2961, 1887, 1886, 2124, 2160, 1886, 2046, 2092, 2193, 2716, 1833, 1948, 1979, 2330, 2387, 2428, 2156, 1891, 2022],
      "WindowCenter": [735.0, 734.0, 734.0, 734.0, 734.0, 734.0, 735.0, 734.0, 734.0, 734.0, 735.0, 735.0, 734.0, 734.0, 732.0, 733.0, 733.0, 734.0, 734.0, 734.0, 734.0, 734.0, 735.0, 735.0, 736.0, 734.0, 733.0, 733.0, 733.0, 733.0, 733.0, 733.0, 733.0, 734.0, 734.0, 735.0, 733.0, 733.0, 733.0, 734.0, 734.0, 734.0, 733.0, 734.0, 735.0, 735.0, 735.0, 734.0, 734.0, 735.0, 734.0, 733.0, 733.0, 733.0, 734.0, 734.0, 734.0, 734.0, 735.0, 734.0, 734.0, 734.0, 734.0, 734.0, 735.0, 733.0, 733.0, 733.0, 734.0, 734.0, 733.0, 733.0, 734.0, 735.0, 735.0, 736.0, 734.0, 734.0, 734.0, 734.0, 735.0, 733.0, 733.0, 733.0, 734.0, 734.0, 734.0, 733.0, 734.0, 734.0, 735.0, 734.0, 734.0, 735.0, 735.0, 732.0, 733.0, 733.0, 733.0, 733.0, 733.0, 734.0, 735.0, 735.0, 735.0, 734.0, 734.0, 735.0, 734.0, 734.0, 733.0, 734.0, 734.0, 734.0, 734.0, 734.0, 735.0, 734.0, 734.0, 734.0, 735.0, 734.0, 734.0, 734.0, 734.0, 735.0, 736.0, 734.0, 734.0, 734.0, 735.0, 734.0, 733.0, 733.0, 733.0, 734.0, 734.0, 733.0, 733.0, 733.0, 733.0, 733.0, 733.0, 734.0, 734.0, 733.0, 734.0, 734.0, 735.0, 735.0, 736.0, 736.0, 735.0, 736.0, 734.0, 734.0, 734.0, 734.0, 734.0, 735.0, 733.0, 733.0, 734.0, 735.0, 736.0, 734.0, 734.0, 735.0, 736.0, 735.0, 733.0, 733.0, 734.0, 734.0, 733.0, 734.0, 735.0, 734.0, 734.0, 735.0, 737.0, 737.0, 737.0, 735.0, 734.0, 734.0, 735.0, 735.0, 736.0, 736.0, 734.0, 734.0, 735.0, 736.0, 733.0, 733.0, 733.0, 735.0, 734.0, 734.0, 734.0, 735.0, 735.0, 734.0, 734.0, 734.0, 734.0, 734.0, 733.0, 734.0, 735.0, 735.0, 735.0, 736.0, 736.0, 734.0, 734.0, 736.0, 736.0, 734.0, 734.0, 734.0, 735.0, 735.0, 735.0, 735.0, 735.0, 736.0, 734.0, 734.0, 734.0, 735.0, 735.0, 735.0, 735.0, 735.0, 735.0],
      "WindowWidth": [1640.0, 1635.0, 1635.0, 1636.0, 1636.0, 1635.0, 1639.0, 1638.0, 1638.0, 1638.0, 1639.0, 1639.0, 1639.0, 1637.0, 1630.0, 1632.0, 1634.0, 1638.0, 1635.0, 1637.0, 1635.0, 1636.0, 1639.0, 1639.0, 1644.0, 1637.0, 1633.0, 1633.0, 1634.0, 1633.0, 1632.0, 1634.0, 1633.0, 1636.0, 1637.0, 1641.0, 1634.0, 1634.0, 1635.0, 1636.0, 1637.0, 1638.0, 1632.0, 1635.0, 1640.0, 1641.0, 1640.0, 1635.0, 1637.0, 1639.0, 1637.0, 1634.0, 1631.0, 1633.0, 1635.0, 1636.0, 1637.0, 1636.0, 1639.0, 1637.0, 1638.0, 1637.0, 1637.0, 1637.0, 1642.0, 1634.0, 1632.0, 1634.0, 1636.0, 1638.0, 1633.0, 1631.0, 1636.0, 1638.0, 1641.0, 1643.0, 1634.0, 1636.0, 1637.0, 1637.0, 1641.0, 1633.0, 1632.0, 1633.0, 1636.0, 1638.0, 1637.0, 1633.0, 1634.0, 1638.0, 1641.0, 1637.0, 1637.0, 1642.0, 1642.0, 1630.0, 1631.0, 1632.0, 1634.0, 1634.0, 1632.0, 1636.0, 1639.0, 1641.0, 1640.0, 1637.0, 1637.0, 1642.0, 1636.0, 1634.0, 1634.0, 1637.0, 1639.0, 1637.0, 1634.0, 1636.0, 1642.0, 1634.0, 1634.0, 1635.0, 1640.0, 1636.0, 1635.0, 1635.0, 1635.0, 1639.0, 1643.0, 1636.0, 1637.0, 1637.0, 1640.0, 1639.0, 1631.0, 1631.0, 1633.0, 1637.0, 1637.0, 1632.0, 1632.0, 1634.0, 1634.0, 1632.0, 1633.0, 1635.0, 1638.0, 1633.0, 1635.0, 1635.0, 1638.0, 1638.0, 1641.0, 1642.0, 1639.0, 1643.0, 1638.0, 1635.0, 1635.0, 1635.0, 1638.0, 1640.0, 1634.0, 1633.0, 1637.0, 1639.0, 1643.0, 1636.0, 1635.0, 1638.0, 1642.0, 1639.0, 1632.0, 1632.0, 1635.0, 1637.0, 1634.0, 1634.0, 1638.0, 1635.0, 1637.0, 1638.0, 1646.0, 1645.0, 1649.0, 1638.0, 1636.0, 1635.0, 1639.0, 1641.0, 1644.0, 1643.0, 1633.0, 1634.0, 1641.0, 1645.0, 1632.0, 1631.0, 1633.0, 1641.0, 1637.0, 1636.0, 1636.0, 1640.0, 1641.0, 1634.0, 1637.0, 1635.0, 1638.0, 1636.0, 1634.0, 1635.0, 1641.0, 1639.0, 1641.0, 1643.0, 1647.0, 1634.0, 1635.0, 1642.0, 1645.0, 1635.0, 1634.0, 1637.0, 1640.0, 1637.0, 1640.0, 1639.0, 1641.0, 1644.0, 1635.0, 1635.0, 1637.0, 1641.0, 1641.0, 1641.0, 1638.0, 1638.0, 1639.0]
    },
    "slices": {}
  }
}